date,call_gamma,put_gamma,call_delta,put_delta,call_charm,put_charm,call_vanna,put_vanna
2025-09-29,2774.5426,-3415.7206,18262.0239,-25964.1737,-19905.1356,-1134.0746,50802.0073,-27050.5651
2025-09-30,2756.6466,-3627.9457,21202.0807,-26349.5564,-20199.0561,-1336.7069,45314.6242,-27709.0175
2025-10-01,2936.6554,-3184.0742,27026.0619,-25045.0807,-19046.9507,-178.4340,37254.4771,-23975.2393
2025-10-02,3525.6661,-2811.1357,20960.2081,-20263.1697,-18010.0048,5225.3242,32618.3882,-41265.7102
2025-10-03,3050.9895,-3139.2869,20957.3240,-21871.6223,-21901.1566,1394.6338,45788.7419,-32411.5317
2025-10-06,3058.6467,-3108.1709,19740.2966,-19882.7701,-23646.1439,2824.6257,47301.5564,-40100.8274
2025-10-07,2801.4081,-3712.0921,18552.5261,-22820.5213,-29233.4211,3749.6726,44684.7164,-33891.6242
2025-10-08,2407.8712,-4720.7575,14463.1270,-26885.6445,-34314.5212,2909.0509,48297.3875,-34596.9462
2025-10-09,2676.2757,-3951.2566,19224.9803,-21983.4158,-38265.1206,9089.5385,40014.6733,-35686.8800
2025-10-10,2257.9508,-4734.8027,13458.4443,-27460.2251,-42602.2813,4724.5517,48084.9617,-26093.3051
2025-10-13,2395.7468,-4549.7252,13259.3403,-25924.1961,-47367.9990,7724.6980,46129.4654,-26265.0816
2025-10-14,2347.6874,-4821.9914,13499.5793,-25378.3532,-77038.4900,21634.5821,37042.1666,-22505.2778
2025-10-15,1629.6496,-5396.9863,7368.1680,-29607.5137,-175355.9235,45276.6018,43915.3580,-12960.3893
2025-10-16,1145.1089,-5073.7637,10494.0726,-22699.9095,-398310.1817,96135.1380,64296.3700,-18573.5113
2025-10-17,3637.9160,-4251.5518,30530.4390,-31518.7622,-1230132.0865,146613.1302,38141.2577,-11862.0036
2025-10-20,3313.5239,-2149.4706,34018.2122,-26498.2608,-11850.6002,-2861.2308,36440.7022,-12664.5337
2025-10-21,3379.6992,-2038.1868,36040.9221,-20001.1411,-11285.7958,-1335.9192,30198.7230,-37317.8044
2025-10-22,3726.9545,-2064.0829,37051.4730,-21108.1466,-11646.2176,-1220.1616,30888.4096,-27616.6796
2025-10-23,3671.0004,-2233.7810,33318.6721,-23777.2227,-12208.4927,-1493.1740,31721.4043,-24529.7580
2025-10-24,3501.5427,-2064.2198,39788.4496,-26668.0401,-11589.0589,-2680.1885,28209.8805,-8335.5046
2025-10-27,3207.4541,-2395.6859,33154.6340,-24648.5283,-12815.6878,-1883.0168,35879.6669,-24002.5976
2025-10-28,3327.6989,-2382.3287,32698.9301,-25340.5558,-14407.6352,-1800.6857,35222.3745,-18578.3324
2025-10-29,2776.9664,-2849.5474,29911.3051,-31162.2690,-14958.7305,-2593.6489,33561.3936,-15519.7847
2025-10-30,3497.0510,-2841.4894,34690.1029,-36300.3823,-16667.5512,-4259.1576,37100.8308,-2653.2051
2025-10-31,2041.0175,-4489.5995,14883.4872,-68669.4019,-23052.9436,-10155.5195,54061.8823,15119.0460
2025-11-03,4715.8296,-3428.0630,34843.3611,-35166.1807,-24275.7171,-1286.3206,48350.2467,-19240.1743
2025-11-04,4108.6255,-4125.4270,25196.1399,-39213.2198,-30232.8988,2321.7997,71251.0890,-40811.3193
2025-11-05,4802.2018,-4046.6906,26227.7644,-41950.6208,-31531.1811,-650.4612,75043.5835,-13023.3968
2025-11-06,5475.0655,-3017.4922,28067.1428,-25538.5085,-29356.4857,9507.4530,60875.0946,-73802.6863
2025-11-07,5529.8135,-2952.8308,32584.3719,-26094.0106,-30533.0696,11871.7568,60378.2497,-60939.5974
2025-11-10,6743.0912,-3171.9521,26669.2496,-25895.5863,-40482.4406,17430.2112,64311.2730,-51957.9745
2025-11-11,8244.0713,-2870.8227,24711.0059,-24459.4151,-47894.5985,18605.1308,83526.5424,-43925.1835
2025-11-12,7545.0551,-2377.6546,42651.9809,-20015.0668,-37884.9291,32355.6762,42422.3920,-67712.7065
2025-11-13,6096.6019,-2133.0561,43276.9182,-19243.2107,-35219.5073,38287.2354,50782.7311,-103231.8162
2025-11-14,6775.2112,-1791.5037,56045.8339,-17209.6087,-34867.8178,53088.0656,23925.5542,-75198.9433
2025-11-17,14548.1477,-2429.2460,42403.4024,-20834.9945,-74476.6789,76304.4563,49601.0035,-34551.3354
2025-11-18,8608.2014,-2856.1455,37748.1624,-24194.0967,-96022.6083,108556.2903,35452.0355,-29332.7144
2025-11-19,9424.9761,-3407.5645,45788.9589,-27610.1727,-93059.1762,121800.4646,35548.8400,-32319.9833
2025-11-20,7316.7366,-4623.0069,29470.4063,-38173.5829,-236107.3472,190913.1813,56093.2933,-24397.0107
2025-11-21,10450.7414,-3963.4146,34867.3661,-29362.7623,-202448.4445,246600.3605,50875.9445,-33707.4199
2025-11-24,4428.1062,-2308.8698,40832.1320,-20583.5047,-10422.7235,-323.4760,19719.9799,-24418.9628
2025-11-25,7151.7622,-1987.6405,40500.8629,-16658.9480,-12507.1802,985.1370,6358.5644,-31519.1851
2025-11-26,4895.6520,-1709.3572,50013.3638,-13465.1079,-9712.7488,2079.0003,13597.1635,-42005.0564
2025-11-28,4991.4603,-1720.3345,52411.5737,-13855.0847,-9991.1841,2807.6875,12312.6582,-35607.0885
2025-12-01,4915.3825,-1454.5581,58051.6985,-11885.3657,-9623.8920,4689.5543,9255.0557,-34947.1424
2025-12-02,5145.2347,-1598.6162,52536.6891,-12574.3329,-11151.3522,5202.0841,13273.8898,-36389.6608
2025-12-03,4910.4145,-2193.3133,41375.1267,-16604.6218,-14702.6020,3718.2904,24348.7323,-29755.6855
2025-12-04,4749.6282,-2189.6956,46847.0858,-19137.5526,-14241.0388,2545.2307,21168.4078,-18933.2740
2025-12-05,6427.7175,-2241.7006,36890.8456,-18186.9238,-18592.6022,3789.9596,29128.8126,-21708.6215
2025-12-08,6759.6726,-2318.6931,35119.5118,-23233.3071,-21004.5368,2134.2861,26852.4998,-8903.4429
2025-12-09,4174.9765,-2915.9892,34747.2711,-22645.6417,-24855.4486,4819.7148,28933.9770,-16187.2200
2025-12-10,3321.6373,-4466.0226,24000.9124,-26248.2630,-33936.0565,5350.6792,35778.1220,-25777.2544
2025-12-11,4082.5856,-3280.2307,27419.8784,-25235.1052,-33968.6743,5961.6141,33885.5223,-13584.4858
2025-12-12,4466.2124,-3030.4342,19499.1047,-29594.8744,-43771.0579,1333.6591,48136.5647,-4087.0613
2025-12-15,7060.6906,-1664.1480,32354.9544,-11392.0484,-51221.8828,47633.4897,30248.5621,-28250.4311
2025-12-16,10918.2829,-1355.1469,37669.1511,-9831.0293,-55385.6425,68770.0504,27314.0812,-23917.9067
2025-12-17,9554.1596,-857.4001,39417.1548,-9450.2065,-73030.1836,135973.9165,30273.5007,-49851.6675
2025-12-18,11156.4196,-1896.1479,45798.0903,-15541.1938,-92304.9441,167802.5779,29392.7102,-17614.2951
2025-12-19,7966.7736,-1612.2928,37191.9814,-13555.0631,-94524.2364,160509.0561,37931.3350,-40433.3801
2025-12-22,3024.2907,-2285.4030,18527.7224,-20473.7676,-14600.2609,-509.3342,47497.8880,-23024.9910
2025-12-23,3540.8148,-1978.1043,15168.0262,-20036.2809,-17283.8038,-613.1337,58364.1078,-15382.9969
2025-12-24,3435.5363,-1852.2261,21586.4943,-14325.8524,-14626.5462,1333.6987,44206.4907,-37695.9516
2025-12-26,3632.1498,-1943.8019,16414.4142,-17932.5670,-18320.0535,512.4744,56157.4902,-18989.8648
2025-12-29,3718.4289,-121.5434,14990.9461,-2957.0474,-19706.6146,-244.8510,53190.8730,174.9314
2025-12-30,3902.2087,-1589.6295,19125.6993,-12249.0647,-19927.1447,4620.7967,49709.7501,-34155.2501
2025-12-31,3725.3134,-1664.0698,19634.7754,-12627.8803,-19421.7401,4322.5140,47175.1476,-33198.9041
2026-01-02,3114.8699,-1776.8956,13626.4470,-12597.4888,-25232.0832,6714.8676,57263.4463,-36408.7051
2026-01-05,3619.5379,-1953.2914,20114.7938,-15353.5009,-28420.0846,6423.9906,44459.8621,-19247.6089
2026-01-06,3333.7150,-2138.0417,15000.0547,-17912.7723,-33046.7100,6000.2983,51656.7445,-14909.0511
2026-01-07,2780.9633,-2419.7733,13110.0031,-19448.6045,-37397.7087,6722.6022,50210.9640,-14414.7632
2026-01-08,2584.8468,-2562.5038,12399.0306,-19888.1757,-40833.4794,9637.4914,46021.9018,-16266.6244
2026-01-09,3551.1627,-1494.2175,13966.3633,-10813.9957,-45188.8276,22121.6030,51207.1203,-29749.2724
2026-01-12,3298.6697,-976.9314,12057.2208,-8318.9119,-61139.5558,41064.7572,41634.8638,-22530.2636
2026-01-13,3843.6040,-495.4734,18222.2404,-6195.1910,-38610.1679,40317.7023,23533.3371,-24140.8914
2026-01-14,2991.1928,-760.5048,13367.1361,-7534.7497,-66306.3551,55903.5324,19581.3707,-9530.2987
2026-01-15,4159.6830,-331.6287,18850.0299,-5175.8545,-89582.8657,155652.4149,13616.4378,-15872.6844
2026-01-16,2271.9052,-364.5256,9402.2413,-6374.2500,-383373.9152,523437.0842,11486.1301,-9846.3511
2026-01-20,371.1248,-321.5330,4882.2019,-6199.7435,-1698.3570,-704.6385,6626.3172,125.2818
2026-01-21,392.8136,-320.9351,4912.2037,-6162.5440,-1709.8868,-694.8176,6373.2386,65.1004
2026-01-22,423.4944,-327.4583,5652.1494,-6021.7061,-1782.7046,-694.5110,6958.9773,339.9274
2026-01-23,427.0577,-355.6605,5314.1066,-5932.2221,-1850.8186,-686.5340,6943.8354,-659.2455
2026-01-26,459.8353,-328.4905,5992.8124,-5418.0966,-1735.8479,-610.8722,6077.4323,-529.4508
2026-01-27,431.5484,-360.1327,5502.5941,-5955.3255,-2023.7256,-753.2246,6991.9874,92.6916
2026-01-28,416.2534,-348.8126,4958.8450,-6317.7686,-2102.0446,-757.5270,7187.8051,153.0496
2026-01-29,404.7858,-349.6188,5129.6731,-6249.5734,-2123.9620,-792.8754,7019.5029,141.9129
2026-01-30,415.8356,-328.2764,5209.7580,-6151.3164,-2170.5881,-796.7260,6812.3431,163.5482
2026-02-02,427.1252,-363.5114,5349.5681,-6260.5273,-2487.7518,-927.6509,6801.0772,447.3853
2026-02-03,427.9520,-352.1804,4881.2791,-6145.1081,-2686.6204,-906.6975,7400.6177,66.8874
2026-02-04,456.1571,-365.9841,5296.3838,-5844.4750,-2730.4715,-900.2788,6923.0179,-35.7697
2026-02-05,614.0988,-293.4658,7144.5608,-4620.8516,-2534.1108,-604.9311,5345.7009,-617.5212
2026-02-06,603.7877,-357.3280,8428.2417,-4872.8227,-2430.2068,-585.0068,4247.6083,-1698.0716
2026-02-09,748.4231,-282.5131,11600.3178,-2872.9496,-2236.2000,41.8736,3337.9127,-2159.4655
2026-02-10,727.5095,-183.9368,15572.3268,-1700.7217,-804.6625,574.8825,-1836.3576,-3281.7914
2026-02-11,791.6479,-170.0579,17729.6459,-1407.2622,-199.8398,1113.6014,-5130.3478,-4277.1254
2026-02-12,737.4315,-186.1398,16351.9199,-1425.0205,-434.1422,1443.4272,-611.7463,-4498.8321
2026-02-13,647.2637,-417.1342,17721.3222,-6328.1328,733.4142,1414.8917,-4228.2903,-4836.0976
2026-02-17,630.9472,-370.9355,17892.5464,-5953.8179,1602.9627,5945.5356,1256.6355,-5981.7380
2026-02-18,644.7493,-378.9846,17875.6002,-6175.1554,6016.3544,9277.7545,116.8589,-5080.8912
2026-02-19,695.4383,-404.2026,18655.4266,-6268.3769,15252.9599,18340.0721,-521.9455,-3482.0153
2026-02-20,538.4665,-329.5026,19709.9580,-5469.4235,57680.7554,47367.2767,-1560.1462,-3689.3145
2026-02-23,431.4204,-342.4768,12209.5184,-5132.2209,-750.2046,-417.0005,764.1952,-5590.5898
2026-02-24,462.6125,-278.4993,13378.7278,-4470.2521,-760.8729,-390.8359,-347.1337,-3940.0350
2026-02-25,468.7685,-308.3915,12363.6419,-5171.0086,-841.7960,-444.0793,1184.7477,-3299.8478
2026-02-26,526.9502,-353.2641,12335.6923,-5849.1785,-865.9150,-522.2121,-215.0093,-2575.1788
2026-02-27,493.8630,-375.5874,11405.3556,-6300.1857,-1016.7512,-581.2600,2547.2958,-2317.8533
2026-03-02,533.8984,-358.9508,12930.8398,-5997.6254,-1009.7123,-557.0711,1663.9877,-1828.5857
2026-03-03,539.9790,-350.0219,11844.0967,-6633.7735,-1162.8244,-629.7289,3601.9180,-702.3475
2026-03-04,529.0696,-406.1934,10917.8680,-7181.8709,-1263.3985,-660.1819,4890.6441,-1670.4375
2026-03-05,500.2494,-414.8327,8769.4549,-8916.3199,-1642.7597,-935.5968,7474.4697,52.2913
2026-03-06,593.9473,-388.1629,8283.4783,-9301.3092,-1591.1529,-820.8680,6041.9512,359.3021
2026-03-09,493.2400,-412.0023,6865.6796,-10902.3931,-2382.3944,-1284.1000,10009.9916,1867.5991
2026-03-10,594.3262,-486.3607,7760.4057,-10491.5237,-2296.9599,-1180.2361,8682.9602,1019.6448
2026-03-11,612.9328,-512.9497,8563.8698,-11590.9071,-2743.1605,-1371.9396,10281.3115,1433.1951
2026-03-12,632.9545,-414.5160,8886.6678,-10178.4413,-3021.7641,-1370.9980,10631.9293,2737.9682
2026-03-13,549.4315,-385.1726,7367.1880,-9946.6641,-3487.8843,-872.5844,11763.0689,2441.8372
2026-03-16,561.4719,-383.2192,6967.0217,-9812.2668,-4868.2308,-822.2230,11960.1747,2320.6523
2026-03-17,533.3191,-418.2146,6981.1221,-10269.6958,-6416.4786,-876.8011,12614.5747,2698.3289
2026-03-18,327.6587,-277.6931,4233.4173,-13421.0741,-11340.8551,-1580.9452,15408.6545,9839.6967
2026-03-19,319.7457,-348.4903,3747.6660,-12279.9012,-21135.1297,-930.8348,17129.9332,5300.6985
2026-03-20,341.4452,-348.7841,4341.1229,-11864.3071,-74854.7535,692.7869,15085.8293,5142.5808
2026-03-23,279.9158,-303.3748,4181.1215,-12400.8527,-1904.3417,-1311.0302,14126.6552,5827.2029
2026-03-24,315.7769,-335.9174,4934.4493,-11839.8285,-1890.1048,-1331.5665,13050.9349,5455.6341
2026-03-25,319.8621,-348.8904,4744.6215,-11328.9577,-2060.3851,-1350.0366,14476.2361,5046.0240
2026-03-26,326.1057,-353.2765,4583.8511,-11252.2966,-2052.2609,-1306.8953,13954.6138,4645.6953
2026-03-27,305.7843,-336.3121,4523.7093,-12013.2973,-2054.1178,-1390.5534,13674.9467,5168.5735
2026-03-30,281.2964,-316.5436,3859.2084,-12289.1748,-2288.6211,-1564.0176,15196.3096,5828.1305
2026-03-31,287.7941,-311.0345,4033.9229,-12561.0968,-2211.1736,-1608.8808,14101.5295,5768.0939
2026-04-01,338.1905,-368.3361,5199.5712,-11574.9196,-2097.7799,-1516.1355,12442.5281,4826.1039
2026-04-02,296.5961,-344.9938,3970.8899,-11896.9168,-2425.8564,-1633.9184,15447.2233,5407.5323
2026-04-06,316.0710,-360.3029,4222.1411,-11682.6471,-2586.7579,-1744.7979,14613.8434,4910.9378
2026-04-07,333.9684,-359.3451,4115.8378,-11875.5898,-2768.6075,-1873.1025,14966.1627,5200.6793
2026-04-08,425.0516,-434.4869,5853.0134,-10180.3585,-2869.2280,-1570.4497,12503.4095,3300.5143
2026-04-09,399.0040,-368.3861,5334.9329,-10768.9452,-3306.4699,-2365.5586,15057.3342,8150.6653
2026-04-10,453.6896,-465.9208,5881.8760,-9460.7329,-2919.5660,-1484.2751,12707.2031,2507.4949
2026-04-13,428.1789,-486.4541,5643.9621,-10787.4167,-3787.8000,-2245.2330,12638.4704,3810.4595
2026-04-14,502.7509,-492.9213,6289.4477,-9830.7110,-3822.2672,-2272.4017,12803.4964,2563.6350
2026-04-15,527.6914,-487.6686,6590.5909,-9726.3669,-4566.8693,-2481.9285,11687.3514,2075.7407
2026-04-16,518.1536,-352.2911,5698.5442,-8735.4718,-5004.5960,-1084.0724,13188.7923,2213.5683
2026-04-17,548.0727,-382.9984,5746.2653,-8815.5750,-15361.4456,-865.0430,13407.4769,2383.7012
2026-04-20,462.9113,-381.6917,5846.4210,-9327.0448,-3387.2668,-1427.3087,14809.8077,3141.9466
2026-04-21,581.4603,-397.7935,6446.8907,-8707.7189,-3465.0218,-1265.1433,14488.0915,2272.5734
2026-04-22,457.2559,-326.4345,5258.2740,-10779.4682,-3788.0797,-1841.0081,15427.0458,5403.0690
2026-04-23,388.7330,-320.5865,4586.2922,-10260.5218,-3399.9564,-1745.2819,13863.7984,3229.7349
2026-04-24,380.1238,-317.4866,4738.3627,-11028.3597,-3539.2662,-1957.9188,13465.1041,4218.9001
2026-04-27,408.3086,-323.0662,5086.4008,-10316.4851,-4032.9213,-2092.0279,13686.3566,3311.0096
2026-04-28,378.3949,-319.9992,4372.1923,-11162.3534,-4248.6706,-2270.0765,15424.1417,4753.5647
2026-04-29,410.3747,-345.6163,5357.8859,-10591.3178,-4197.8526,-2109.9314,12250.0185,2983.6812
2026-04-30,355.9389,-324.6679,4272.4850,-11638.7228,-4927.4253,-2753.6084,14446.0166,4498.8625
2026-05-01,502.2948,-388.0778,5459.5308,-9507.1906,-4855.7058,-1861.3247,14348.3013,1390.6567
2026-05-04,376.4053,-229.9148,4558.6606,-13507.2289,-7248.1350,-5008.0264,17176.9224,13894.4292
2026-05-05,458.9600,-331.7003,5893.8367,-12305.7420,-7283.9176,-3932.4097,14596.6719,3940.3263
2026-05-06,477.0719,-354.2914,6356.4527,-12161.2586,-7643.8881,-3819.8907,14453.3374,4244.2421
2026-05-07,431.2151,-245.2067,5240.1080,-5073.1931,-8913.7593,-970.3526,15002.0534,452.8894
2026-05-08,421.7744,-241.7256,5383.2235,-2703.0781,-9905.8858,665.5726,15821.0844,-1956.9345
2026-05-11,367.4038,-388.1450,4468.7899,-3280.2373,-17238.1014,1424.2082,13935.8689,-1268.3086
2026-05-12,362.1341,-335.8184,4001.8682,-3102.6683,-22841.8219,2174.7803,15376.5915,-1312.1816
2026-05-13,311.4507,-340.1963,3323.8964,-3698.9595,-34443.4604,2185.1091,15326.6355,-326.0981
2026-05-14,265.6669,-383.9578,3097.0229,-3670.0857,-52738.4318,6304.8084,15434.9374,-303.8513
2026-05-15,268.4394,-358.0639,3010.2954,-3614.3296,-222845.6012,20158.0002,13996.8082,36.2365
2026-05-18,239.2321,-140.5138,2575.0052,-3303.7964,-1584.9944,-303.6058,11455.0508,626.0650
2026-05-19,262.8262,-151.2526,2746.2198,-3357.2971,-1638.5825,-329.2840,12022.2192,675.1473
2026-05-20,267.0736,-152.2867,2372.7842,-3272.6607,-1757.5379,-302.0293,13582.1991,370.7121
2026-05-21,263.2958,-143.3576,2743.1921,-3249.7543,-1658.8903,-291.5660,11085.6495,459.5586
2026-05-22,262.4266,-142.7474,2604.6144,-3186.3352,-1749.2157,-291.0355,12601.3425,406.9358
2026-05-26,280.9336,-160.1730,2737.2902,-3273.6020,-1792.7624,-323.7801,11481.7257,557.5332
2026-05-27,286.3547,-167.5445,2738.2816,-3204.3630,-1876.9311,-317.8126,12849.2159,431.6994
2026-05-28,258.0904,-172.3040,2431.8551,-3480.1220,-1810.9385,-297.6971,11937.6660,140.9901
2026-05-29,273.4144,-180.9265,2813.4507,-3577.6825,-1996.1480,-451.7536,11889.8684,1853.3794
2026-06-01,271.7894,-184.1491,2439.5355,-3808.5260,-2157.6013,-427.4095,11386.0614,939.8052
2026-06-02,241.0219,-858.8412,1970.8671,-11004.4565,-2500.8371,-1757.1970,14141.1736,2049.2190
2026-06-03,230.6576,-846.4544,2087.9078,-10934.1078,-2500.9931,-1800.1966,14023.8519,1961.5629
2026-06-04,313.5857,-878.7304,2395.4453,-9012.7121,-2488.2853,-1248.8556,11306.2603,-116.6483
2026-06-05,276.0486,-1060.5257,2130.8265,-10511.7288,-2695.5327,-1800.3985,13037.3951,960.9022
2026-06-08,218.6473,-1053.4986,1695.2078,-13218.8630,-3439.5495,-3359.1849,15142.3382,5406.8698
2026-06-09,329.5453,-854.5230,2433.3760,-8960.4769,-3237.4169,-1356.2583,12290.9069,-142.2872
2026-06-10,383.7101,-1295.0086,3087.5215,-8504.9712,-3134.4653,-170.8086,11375.6963,-4518.4817
2026-06-11,358.1918,-1641.3024,2550.9005,-10268.9838,-3719.2322,-1621.1929,13476.4992,-330.3686
2026-06-12,495.7461,-883.5219,3428.0086,-8725.3398,-3426.4805,-634.6038,12392.6267,-693.2444
2026-06-15,851.6032,-786.4960,4759.0892,-6014.7900,-3669.6951,3399.8409,9877.5507,-2585.6635
2026-06-16,611.2410,-966.5801,3867.5165,-7041.0407,-7029.0826,4825.4735,11285.7164,-1826.6699
2026-06-17,678.5406,-409.0258,5461.0359,-3907.3890,-9099.5487,3733.0036,9436.3899,-1326.5510
2026-06-18,1303.6465,-448.8825,4421.4843,-4135.4372,-13307.8963,6700.8981,11551.1789,-1893.2789
2026-06-22,112.8043,-251.7652,1938.0681,-3503.9005,-1286.0657,-363.3273,11334.6612,-964.0414
2026-06-23,136.8680,-251.5593,2396.3624,-3386.8300,-1314.3903,-339.1105,9627.6864,-1730.4936
2026-06-24,149.1349,-247.0840,2664.9298,-3551.3321,-1337.9269,-376.5844,9623.1507,-689.2079
2026-06-25,187.6368,-175.2613,3566.9374,-2487.3826,-1377.6063,-242.9538,9403.7552,-1168.3341
2026-06-26,215.7777,-193.0985,3562.2408,-2631.3003,-1464.6827,-181.5853,10012.5530,-1874.7244
2026-06-29,231.6866,-181.2863,3800.2668,-2253.5662,-1442.3870,-113.3155,9224.7315,-2484.5216
2026-06-30,275.9240,-198.4799,4312.2442,-2307.2262,-1539.1053,-34.1463,7266.3458,-3429.7322
2026-07-01,274.2332,-194.8956,3614.5680,-2138.2403,-1819.0904,5.4639,11541.7756,-3588.9246
2026-07-02,280.0331,-168.1018,4571.1475,-2063.8604,-1522.4140,69.6893,7576.5771,-2866.1519
2026-07-06,346.0109,-206.7906,5118.9016,-2437.4022,-2154.0834,85.2621,9842.0105,-1816.5434
2026-07-07,413.8339,-180.1587,5859.2910,-2499.0560,-1827.8652,-63.2610,9098.4453,-1055.4915
2026-07-08,457.2789,-219.1291,5764.0495,-2920.8323,-2293.9384,-244.1203,8600.7027,-1164.4656
2026-07-09,390.8763,-245.8924,4666.0872,-3393.1538,-2310.1661,-235.2980,8745.5032,-681.6942
2026-07-10,395.3843,-250.0321,4777.9345,-3097.9837,-2608.8621,73.1136,9233.1662,-1134.7090
2026-07-13,406.5375,-204.3465,5060.5983,-2591.9822,-3683.3659,666.7008,10423.0177,-590.8817
2026-07-14,395.8398,-169.2424,6249.8519,-2088.1943,-3293.4430,2128.7167,7405.3931,-1567.7389
2026-07-15,604.4899,-168.1992,8931.0340,-2105.8389,-2417.6112,3859.2753,8053.6759,-1471.8702
2026-07-16,731.8728,-131.1606,14088.9922,-1806.8412,2652.4465,10532.8814,10691.1500,-2133.0184
2026-07-17,612.5145,-95.5695,17265.9427,-1359.1369,23163.2065,40606.6092,9914.3350,-2283.8774
2026-07-20,830.4174,-120.9800,19831.6340,-1950.8521,-5786.7714,-183.1930,20489.2303,-813.6367
2026-07-21,832.5815,-178.8108,18735.8627,-3200.5720,-6008.0125,-311.9350,21380.8420,-678.9003
2026-07-22,876.3292,-183.9124,18482.7361,-3422.1453,-6361.8393,-332.8069,21745.4000,-294.9120
2026-07-23,899.0314,-173.6830,18528.9169,-3377.1124,-6499.2482,-312.4007,21126.7532,-361.9251
2026-07-24,1116.5196,-179.3002,24909.0547,-3342.7303,-7229.6663,-317.0074,23575.2690,-476.7081
2026-07-27,1224.9370,-155.5903,31790.5925,-2853.9400,-6201.6284,-262.6084,12015.0136,-365.3895
2026-07-28,1179.6385,-149.1212,33881.1956,-2453.0851,-5797.2624,-137.1969,9482.0491,-1396.4983
2026-07-29,1131.0068,-147.7004,33007.8540,-2436.3404,-6231.7627,-132.8265,12666.3661,-1285.1332
2026-07-30,1169.5222,-148.8483,33716.2672,-2402.2646,-5833.9902,-105.5418,10837.2572,-1359.8443
2026-07-31,1125.0833,-164.9233,35797.9300,-2189.4628,-6863.5761,-198.5920,12600.9497,-1410.6831
2026-08-03,1108.3450,-184.8878,33657.6316,-2273.6761,-6969.0956,-49.2036,13863.1845,-2137.5069
2026-08-04,910.8911,-200.9056,24696.6542,-2447.1657,-7784.0536,-31.9604,17963.3755,-1994.7863
2026-08-05,795.0343,-223.3971,22425.6795,-2640.2027,-8146.7669,-26.5303,19125.4098,-2033.8102
2026-08-06,823.4078,-203.8205,22540.1983,-2407.7856,-8433.0822,275.1623,19497.2977,-3423.5041
2026-08-07,575.5464,-203.9820,26364.7537,-2575.9045,-6340.7044,210.3939,-17821.6956,-2305.1233
2026-08-10,1172.7731,-231.3182,19710.3775,-2910.9216,-10141.2808,358.0606,13693.5400,-3247.4321
2026-08-11,1521.6203,-239.6438,21346.7044,-3161.5447,-12543.1133,227.4950,17687.1662,-1793.5685
2026-08-12,1344.9039,-270.1465,22303.5702,-3880.3701,-11240.8720,369.2507,8772.3227,-2287.8970
2026-08-13,1764.0163,-232.6810,22324.1725,-3760.4211,-14333.3735,343.7997,17408.0793,-1012.3278
2026-08-14,995.8842,-282.0090,21227.9433,-4188.0617,-14241.5645,637.8591,-2980.2913,-2304.6257
2026-08-17,1127.5494,-288.1603,20053.0708,-4506.7212,-23775.0714,1057.2573,5502.0878,-913.3734
2026-08-18,1551.6904,-259.6086,19141.2665,-3256.3589,-32992.1135,2854.8837,12654.9476,-2398.4752
2026-08-19,1536.4025,-245.0487,20755.0162,-3242.3805,-36686.9957,4640.7198,8442.8834,-1883.5549
2026-08-20,1369.9191,-289.2336,16321.1722,-3792.6828,-81969.7137,11428.2044,8614.9014,-2144.4088
2026-08-21,1613.1448,-217.6111,22110.6337,-2784.5778,-212547.7486,28333.6407,3717.1375,-1513.0607
2026-08-24,181.7883,-128.5282,6431.2782,-2236.3876,-446.5686,-209.4106,939.3030,-862.4086
2026-08-25,219.6215,-128.5783,6984.5709,-2218.2928,-597.4373,-233.9208,1327.6726,-1040.1675
2026-08-26,242.1219,-135.9866,6738.2368,-2294.3935,-661.6568,-238.5311,1392.7177,-727.4018
2026-08-27,237.3128,-164.9960,6369.0774,-2703.4571,-741.2477,-316.7513,1777.1421,-1281.1208
2026-08-28,246.6514,-156.9601,6526.4936,-2671.9052,-735.6817,-307.4033,1023.0704,-619.1009
2026-08-31,245.3348,-163.9076,6447.2203,-2626.9313,-814.7100,-326.6630,1788.7860,-601.0819
2026-09-01,236.7969,-169.1020,6168.6152,-2970.4433,-864.0947,-411.6654,2211.8661,-0.7129
2026-09-02,233.5685,-156.8762,5947.3608,-3015.7969,-971.4143,-420.8794,2616.6552,-211.8026
2026-09-03,214.2179,-146.3996,5512.5216,-3736.0234,-1061.5007,-714.2137,3298.3893,1013.8864
2026-09-04,215.0781,-127.6421,5390.8722,-3692.7209,-1124.9848,-718.4290,2987.6677,1008.6369
2026-09-08,175.8427,-86.9571,4680.3971,-4383.2589,-1449.6881,-989.7176,3885.5907,1165.1483
2026-09-09,185.5433,-82.6604,4364.1086,-3825.5012,-1523.7512,-1015.8627,4038.6563,1701.1051
2026-09-10,188.9564,-66.1308,4150.2089,-3756.0980,-1824.6878,-1167.5812,4849.4913,1368.1070
2026-09-11,226.6404,-58.6034,4651.5095,-3831.8282,-1587.0746,-1416.0021,3144.4035,2392.4922
2026-09-14,205.2715,-59.8153,4804.6242,-3872.3503,-2743.3988,-2250.6200,4119.8015,3565.3461
2026-09-15,213.1948,-63.1906,4785.8600,-3806.4256,-3416.3107,-2789.2429,3696.3132,2202.9626
2026-09-16,224.8285,-98.7902,4991.3311,-3640.3779,-4825.6534,-3338.8996,3718.1963,849.5326
2026-09-17,235.3057,-73.3445,5104.6671,-1853.3594,-8722.4667,-155.1894,2432.5854,139.6853
2026-09-18,2998.1350,-80.1222,7212.2490,-1947.4015,-1212216.3784,-168.1422,60310.2719,49.2749
2026-09-21,198.0587,-73.1607,4737.9647,-1985.4541,-632.5748,-185.0223,2805.2284,31.5994
2026-09-22,207.8902,-77.3679,4715.0944,-2001.7382,-674.2833,-183.3924,3059.2444,269.5354
2026-09-23,221.7289,-75.9708,5017.5204,-1948.5714,-708.6823,-176.6048,2849.8223,232.9727
2026-09-24,220.2756,-78.0349,4926.9901,-2032.0319,-727.1167,-191.7581,2947.1321,196.8356
2026-09-25,214.7827,-80.9137,4640.6487,-2142.3940,-756.2611,-190.1019,3294.3010,235.6349
