date,call_volume,put_volume,call_volume_ask_side,call_volume_bid_side,put_volume_ask_side,put_volume_bid_side,net_call_premium,net_put_premium,put_premium,call_premium,avg_30_day_call_volume,avg_30_day_put_volume,avg_7_day_call_volume,avg_7_day_put_volume,bearish_premium,bullish_premium,put_open_interest,call_open_interest,avg_3_day_put_volume,avg_3_day_call_volume
2026-09-25,0,0,,,,,,,0,0,79.4667,1.1667,327.7143,0.2857,0,0,54,121,0,3
2026-09-24,0,0,,,,,,,0,0,79.5,1.1667,327.8571,0.5714,0,0,54,121,0,5
2026-09-23,2,0,2.0,0.0,0.0,0.0,250.00,0,0,250.00,79.4667,1.5333,327.7143,0.5714,0,250.00,54,119,0,6
2026-09-22,7,0,7.0,0.0,0.0,0.0,840.00,0,0,840.00,80.3,1.5333,327.2857,0.7143,0,840.00,54,112,0.6667,761.6667
2026-09-21,6,0,4.0,2.0,0.0,0.0,7104.00,0,0,8608.00,90.1,1.5333,327.2857,0.7143,752.00,7856.00,54,111,0.6667,759.6667
2026-09-18,5,0,5.0,0.0,0.0,0.0,1295.00,0,0,1295.00,90.0333,1.5333,327.5714,1,0,1295.00,54,1466,1.3333,758.3333
2026-09-17,2274,2,365.0,1805.0,0.0,2.0,-7095.00,-592.00,592.00,13761.00,14.2333,1.9667,5.2857,2.4286,9988.00,3485.00,52,134,0.6667,0.6667
2026-09-16,0,0,,,,,,,0,0,15.8333,2.2667,5.5714,2.8571,0,0,70,134,1,2
2026-09-15,1,2,1.0,0.0,2.0,0.0,190.00,740.00,740.00,190.00,19.1667,2.2667,5.4286,2.5714,740.00,190.00,68,133,0.3333,3.6667
2026-09-14,1,0,0.0,1.0,0.0,0.0,-20.00,0,0,20.00,20.1,2.2667,5.4286,2.8571,20.00,0,68,132,1,5.6667
2026-09-11,4,1,0.0,0.0,1.0,0.0,0,342.00,342.00,950.00,20.6667,2.3333,4.8571,2.7143,342.00,0,67,132,4.6667,10.3333
2026-09-10,6,0,4.0,2.0,0.0,0.0,250.00,0,0,1270.00,22.2333,2.3333,4.4286,2.7143,510.00,760.00,67,126,5.6667,9
2026-09-09,7,2,5.0,2.0,2.0,0.0,962.00,2689.00,2689.00,1198.00,22.0667,2.2667,3.4286,2.4286,2807.00,1080.00,68,123,5,6.6667
2026-09-08,18,12,4.0,13.0,10.0,2.0,-3734.00,25899.00,27241.00,5667.00,21.4667,1.9333,1,0.7143,31228.00,1595.00,74,126,1.6667,1
2026-09-04,2,3,0.0,2.0,0.0,3.0,-30.00,-1910.00,1910.00,30.00,21.4667,1.9667,0.7143,0.5714,30.00,1910.00,71,128,0.6667,0.3333
2026-09-03,0,0,,,,,,,0,0,24.8333,1.9667,1,0.5714,0,0,71,128,0.6667,1.3333
2026-09-02,1,2,1.0,0.0,1.0,1.0,86.00,-415.00,1329.00,86.00,25,1.9333,2.5714,0.2857,457.00,958.00,69,128,0,1
2026-09-01,0,0,,,,,,,0,0,25.3333,1.9333,3.5714,0.4286,0,0,69,128,0,1.3333
2026-08-31,3,0,1.0,2.0,0.0,0.0,127.00,0,0,675.00,25.3333,2.6333,3.2857,0.4286,274.00,401.00,69,127,0.6667,0.3333
2026-08-28,0,0,,,,,,,0,0,32.7667,2.7,3.5714,0.4286,0,0,69,127,0.6667,1
2026-08-27,1,0,0.0,1.0,0.0,0.0,-433.00,0,0,433.00,33.3,3,4.1429,0.4286,433.00,0,69,126,0.6667,4.6667
2026-08-26,0,2,0.0,0.0,1.0,1.0,0,263.00,1599.00,0,38.1,2.9667,5.1429,1.1429,931.00,668.00,67,126,0.3333,7
2026-08-25,2,0,1.0,1.0,0.0,0.0,-22.00,0,0,312.00,40.7333,3.3,5.8571,1.2857,167.00,145.00,67,124,0.3333,6.6667
2026-08-24,12,0,10.0,2.0,0.0,0.0,1440.00,0,0,2160.00,40.3667,3.3667,4.5714,1.2857,360.00,1800.00,67,112,0.3333,3.3333
2026-08-21,7,1,7.0,0.0,1.0,0.0,1963.00,360.00,360.00,1963.00,40.5,4.7667,3.7143,1.1429,360.00,1963.00,123,563,0,2.6667
2026-08-20,1,0,0.0,1.0,0.0,0.0,-140.00,0,0,140.00,40.6,4.7667,3.7143,2.7143,140.00,0,123,562,2.3333,4.6667
2026-08-19,2,0,1.0,1.0,0.0,0.0,306.00,0,0,990.00,41.2333,5.3,8,2.7143,342.00,648.00,123,562,2.6667,6.3333
2026-08-18,5,0,0.0,5.0,0.0,0.0,-750.00,0,0,750.00,41.2,5.6333,50.1429,2.7143,750.00,0,123,558,2.6667,5.6667
2026-08-17,7,7,0.0,5.0,2.0,5.0,-75.00,-2972.00,5472.00,1815.00,41,5.6,49.5714,1.7143,1325.00,4222.00,134,562,0.3333,3.6667
2026-08-14,7,1,1.0,6.0,1.0,0.0,-6695.00,300.00,300.00,8545.00,42.7667,5.6333,48.5714,3.7143,7920.00,925.00,133,560,3.6667,1.6667
2026-08-13,3,0,1.0,2.0,0.0,0.0,-275.00,0,0,621.00,42.7,5.7,55,5,448.00,173.00,133,559,3.6667,11.3333
2026-08-12,1,0,0.0,0.0,0.0,0.0,0,0,0,120.00,42.6667,5.9,69.2857,5.2857,0,0,133,558,3.6667,111
2026-08-11,1,11,0.0,1.0,0.0,11.0,-3939.00,-19039.00,19039.00,3939.00,42.9333,5.6333,73.2857,3.7143,3939.00,19039.00,123,558,0,111.6667
2026-08-10,32,0,29.0,3.0,0.0,0.0,47813.00,0,0,57743.00,41.8667,5.6667,71.7143,4.1429,4965.00,52778.00,123,529,5,101
2026-08-07,300,0,132.0,132.0,0.0,0.0,68742.00,0,0,163918.00,32.4667,5.7667,36.4286,4.1429,45698.00,114440.00,123,569,8,17
2026-08-06,3,0,0.0,3.0,0.0,0.0,-6700.00,0,0,6700.00,32.6333,5.8667,36.2857,4.1429,6700.00,0,123,567,8.6667,49.6667
2026-08-05,0,15,0.0,0.0,8.0,7.0,0,-188.00,5054.00,0,32.8,5.3667,36.2857,2.2857,2433.00,2621.00,123,567,3.6667,59.3333
2026-08-04,48,9,0.0,0.0,4.0,5.0,0,-48.00,2416.00,60480.00,31.5,5.1,29.7143,1.5714,1184.00,1232.00,115,602,1.6667,50.3333
2026-08-03,101,2,100.0,0.0,1.0,1.0,114800.00,170.00,430.00,115050.00,28.5333,5.1,29.7143,1.2857,300.00,114930.00,115,691,1,34.3333
2026-07-31,29,0,22.0,1.0,0.0,0.0,47590.00,0,0,51094.00,27.6,5.2667,26.4286,1.4286,282.00,47872.00,115,690,1,25.3333
2026-07-30,21,3,0.0,7.0,1.0,0.0,-4788.00,415.00,3860.00,19418.00,26.9,9.3,24.8571,1,5203.00,0,115,689,0.6667,18.3333
2026-07-29,53,0,40.0,13.0,0.0,0.0,193.00,0,0,15323.00,25.6,9.3667,17.7143,4,7565.00,7758.00,115,701,2,1.3333
2026-07-28,2,0,0.0,2.0,0.0,0.0,-1838.00,0,0,1838.00,26.1333,9.3667,49.2857,4.2857,1838.00,0,115,701,2,34.3333
2026-07-27,0,2,0.0,0.0,1.0,1.0,0,-37.00,417.00,0,26.2,9.5,51.7143,5.2857,190.00,227.00,115,701,1.6667,36.3333
2026-07-24,2,4,2.0,0.0,3.0,1.0,330.00,3699.00,4859.00,330.00,26.1667,9.6333,72,4.8571,4279.00,910.00,112,699,0.3333,39
2026-07-23,101,0,12.0,89.0,0.0,0.0,-59371.00,0,0,78091.00,22.9333,11.0333,69.1429,6.2857,68731.00,9360.00,112,598,7.3333,6.3333
2026-07-22,6,1,3.0,1.0,1.0,0.0,3749.00,362.00,362.00,5869.00,22.7667,11.1667,68.4286,6.4286,662.00,4049.00,112,596,7.6667,78.6667
2026-07-21,10,0,0.0,10.0,0.0,0.0,-3660.00,0,0,3660.00,22.8,11.2,68.5714,12.5714,3660.00,0,112,586,10.6667,81
2026-07-20,3,21,1.0,2.0,1.0,20.0,-1548.00,-16652.00,17290.00,2028.00,23,10.7,68.7143,9.5714,2107.00,17211.00,92,587,4,128
2026-07-17,223,2,45.0,126.0,2.0,0.0,-66641.00,1300.00,1300.00,122412.00,15.7333,10.6667,39.8571,11.5714,93849.00,25908.00,129,417,6.6667,80.6667
2026-07-16,17,9,11.0,4.0,7.0,2.0,5534.00,1226.00,2434.00,11372.00,15.2333,10.4667,38,11.7143,4024.00,8332.00,127,412,4.3333,75.3333
2026-07-15,144,1,44.0,100.0,0.0,1.0,-62535.00,-316.00,316.00,67531.00,10.6667,15.9,17.5714,12.4286,65033.00,2814.00,126,281,18.3333,31
2026-07-14,81,10,15.0,55.0,0.0,10.0,-7035.00,-470.00,470.00,34504.00,8,15.6667,14.5714,11.2857,19642.00,13077.00,116,214,15,5.3333
2026-07-13,1,2,1.0,0.0,1.0,1.0,4100.00,85.00,105.00,4100.00,8,15.6333,14.5714,11.2857,95.00,4110.00,115,214,19.6667,12
2026-07-10,11,43,2.0,9.0,40.0,3.0,225.00,4225.00,5095.00,2117.00,7.6667,14.2,13,6,5606.00,1606.00,152,207,8.6667,9.6667
2026-07-09,4,0,0.0,4.0,0.0,0.0,-68.00,0,0,68.00,7.6667,14.3,13.7143,6.4286,68.00,0,152,203,10.6667,8.6667
2026-07-08,21,16,0.0,21.0,12.0,4.0,-3860.00,7360.00,7440.00,3860.00,7,13.7667,10.7143,4.2857,11260.00,40.00,148,213,6,21.6667
2026-07-07,4,10,2.0,2.0,0.0,10.0,1243.00,-3622.00,3622.00,1573.00,6.9,13.4333,12.7143,3.2857,165.00,5030.00,139,210,3.3333,20.6667
2026-07-06,1,6,0.0,1.0,2.0,1.0,-160.00,138.00,305.00,160.00,6.8667,13.2667,13.7143,2.8571,359.00,61.00,141,210,3.3333,20.3333
2026-07-02,60,2,22.0,0.0,1.0,1.0,11149.00,33.00,79.00,23419.00,4.8667,13.2667,5.8571,2.5714,56.00,11172.00,142,183,3.6667,3.3333
2026-07-01,1,2,1.0,0.0,1.0,1.0,360.00,0,500.00,360.00,4.9333,13.3667,7,2.4286,250.00,610.00,140,183,3.3333,3
2026-06-30,0,6,0.0,0.0,0.0,6.0,0,-564.00,564.00,0,5.3,13.9,8.7143,1.8571,0,564.00,142,183,2.3333,9
2026-06-29,9,3,3.0,6.0,1.0,2.0,395.00,-1766.00,1806.00,1765.00,5.1,13.8333,7.5714,2.1429,705.00,2866.00,140,175,2.3333,8.6667
2026-06-26,0,1,0.0,0.0,1.0,0.0,0,102.00,102.00,0,5.1,13.9333,7.5714,19.7143,102.00,0,141,175,2,10.3333
2026-06-25,18,3,4.0,2.0,0.0,3.0,2753.00,-187.00,187.00,15112.00,4.5,13.9667,7,19.5714,782.00,3722.00,139,167,1.3333,7.3333
2026-06-24,8,3,1.0,7.0,0.0,3.0,-740.00,-704.00,704.00,940.00,4.2667,13.9667,8.4286,19.1429,840.00,804.00,140,159,1,8.6667
2026-06-23,5,0,3.0,2.0,0.0,0.0,331.00,0,0,1169.00,4.1333,14.0333,8,20,419.00,750.00,140,154,2.6667,7.3333
2026-06-22,9,1,9.0,0.0,0.0,1.0,6957.00,-820.00,820.00,6957.00,4.0667,14.3,6.8571,21,0,7777.00,139,145,43.6667,4.3333
2026-06-18,12,2,10.0,2.0,1.0,1.0,-743.00,-147.00,473.00,1943.00,5.0667,14.3,5.7143,26.7143,1506.00,910.00,176,214,43.6667,5
2026-06-17,1,5,0.0,1.0,0.0,5.0,-600.00,-616.00,616.00,600.00,5.1667,14.5667,5.7143,26.7143,600.00,616.00,176,214,42,10.6667
2026-06-16,0,124,0.0,0.0,61.0,63.0,0,-623.00,2117.00,0,5.2667,12.2667,7.2857,9.1429,747.00,1370.00,299,214,2.6667,11.3333
2026-06-15,14,2,1.0,2.0,0.0,2.0,-92.00,-60.00,60.00,7608.00,6.2,12.3667,6.5714,9.7143,435.00,403.00,301,209,4.6667,7
2026-06-12,18,0,0.0,9.0,0.0,0.0,-183.00,0,0,1308.00,5.8667,12.6333,4.7143,9.8571,183.00,0,301,205,18.6667,2.3333
2026-06-11,2,6,1.0,1.0,2.0,4.0,26.00,-783.00,1213.00,404.00,5.8,12.4667,4.7143,9.4286,404.00,1213.00,296,205,18.3333,2
2026-06-10,1,8,0.0,1.0,1.0,7.0,-200.00,-1575.00,2255.00,200.00,5.7667,12.3333,5.5714,31.7143,540.00,1915.00,288,205,16,5.3333
2026-06-09,4,42,1.0,3.0,35.0,7.0,2665.00,6809.00,9733.00,3881.00,5.6333,10.9333,5.1429,26.1429,8879.00,4735.00,251,203,4,7
2026-06-08,1,5,0.0,1.0,4.0,1.0,-70.00,1583.00,1953.00,70.00,5.7667,11.0667,5.1429,25.5714,1838.00,185.00,249,204,2.6667,8.3333
2026-06-05,11,1,1.0,10.0,0.0,1.0,725.00,-105.00,105.00,1125.00,5.4,11.0667,3.7143,25.4286,200.00,1030.00,249,193,3.3333,5.3333
2026-06-04,9,6,7.0,2.0,1.0,5.0,2109.00,-832.00,5418.00,2521.00,6.7,10.9,3,25,2499.00,5440.00,246,188,56,4.6667
2026-06-03,5,1,0.0,0.0,1.0,0.0,0,100.00,100.00,950.00,6.5333,10.8667,2.4286,24.8571,100.00,0,245,192,56.6667,3.3333
2026-06-02,2,3,1.0,1.0,0.0,3.0,255.00,-1369.00,1369.00,1007.00,6.8333,10.9333,2.2857,24.4286,376.00,2000.00,243,194,56,3
2026-06-01,7,164,3.0,2.0,80.0,84.0,723.00,12388.00,38072.00,4523.00,7.7667,5.4667,1.2857,1.1429,26580.00,14915.00,79,187,1.3333,1
2026-05-29,1,3,0.0,1.0,2.0,0.0,-117.00,750.00,1320.00,117.00,7.7333,5.4333,1.1429,1,867.00,0,76,187,1.3333,2
2026-05-28,1,1,0.0,1.0,0.0,1.0,-1600.00,-225.00,225.00,1600.00,7.8333,5.4,1.4286,1.5714,1600.00,225.00,75,186,1,2
2026-05-27,1,0,0.0,1.0,0.0,0.0,-127.00,0,0,127.00,7.8333,5.4333,2.8571,4.7143,127.00,0,75,186,1,2
2026-05-26,4,3,3.0,1.0,2.0,1.0,263.00,216.00,656.00,579.00,8.2333,5.3667,2.7143,4.4286,594.00,641.00,72,185,0.3333,0.6667
2026-05-22,1,0,0.0,0.0,0.0,0.0,0,0,0,480.00,8.2,5.3667,2.5714,5,0,0,72,185,1,0.3333
2026-05-21,1,0,0.0,1.0,0.0,0.0,-176.00,0,0,176.00,8.1667,5.3667,2.4286,5.5714,176.00,0,72,185,2.6667,1
2026-05-20,0,1,0.0,0.0,0.0,0.0,0,0,125.00,0,8.3667,5.3333,2.5714,5.8571,0,0,71,185,9.6667,4.6667
2026-05-19,0,2,0.0,0.0,1.0,1.0,0,671.00,789.00,0,8.6333,5.2667,2.7143,5.8571,730.00,59.00,70,185,9.3333,5.6667
2026-05-18,3,5,2.0,1.0,5.0,0.0,431.00,280.00,280.00,1331.00,8.6667,5.1333,3.2857,6.4286,730.00,881.00,65,182,9,4.6667
2026-05-15,11,22,5.0,6.0,14.0,7.0,-159.00,20889.00,28588.00,2299.00,8.3333,4.4333,7.7143,3.5714,25740.00,4692.00,110,335,3,1
2026-05-14,3,1,2.0,1.0,1.0,0.0,96.00,45.00,45.00,496.00,8.3667,4.4,7.8571,5.2857,245.00,296.00,111,334,3.6667,0.3333
2026-05-13,0,4,0.0,0.0,0.0,4.0,0,-476.00,476.00,0,8.4,4.3333,8.2857,12.5714,0,476.00,110,334,3,0.6667
2026-05-12,0,4,0.0,0.0,2.0,2.0,0,36.00,484.00,0,8.5667,4.2,14.2857,12.7143,260.00,224.00,114,334,4.6667,3
2026-05-11,1,3,1.0,0.0,3.0,0.0,190.00,710.00,710.00,190.00,8.5333,4.1,15.2857,13.4286,710.00,190.00,111,335,4.3333,16.6667
2026-05-08,1,2,0.0,1.0,1.0,1.0,-129.00,257.00,487.00,129.00,8.5,4.0333,15.1429,13.2857,501.00,115.00,114,334,8,17.6667
2026-05-07,7,9,1.0,6.0,1.0,8.0,-850.00,-701.00,1041.00,2646.00,8.2667,3.7333,14.1429,12.5714,1918.00,1769.00,135,327,23.3333,16.3333
2026-05-06,42,2,1.0,41.0,1.0,1.0,-31992.00,-92.00,292.00,33032.00,6.9667,3.6667,8.1429,12.2857,32612.00,712.00,215,331,24.3333,16.3333
2026-05-05,4,13,3.0,0.0,2.0,11.0,1515.00,-2431.00,3845.00,2310.00,6.8333,3.2333,8.2857,11.7143,707.00,4653.00,203,338,22.6667,17.6667
2026-05-04,3,55,1.0,1.0,28.0,24.0,90.00,-6366.00,29560.00,899.00,6.8333,1.4,7.8571,4,11364.00,17820.00,188,338,4.6667,16.6667
2026-05-01,42,5,22.0,18.0,1.0,4.0,854.00,-455.00,3265.00,19404.00,5.5,1.2667,8.7143,3.4286,10565.00,11874.00,189,305,4.3333,2.6667
2026-04-30,8,8,2.0,3.0,5.0,2.0,92.00,903.00,2002.00,4095.00,5.3,1,7.5714,2.2857,2954.00,2143.00,185,298,1.6667,0
2026-04-29,0,1,0.0,0.0,0.0,1.0,0,-120.00,120.00,0,5.4667,0.9667,9.1429,2.8571,0,120.00,184,298,4.3333,1.6667
2026-04-28,0,4,0.0,0.0,0.0,4.0,0,-1254.00,1254.00,0,5.7333,0.8333,14.1429,2.2857,0,1254.00,180,298,3.3333,1.6667
2026-04-27,0,0,,,,,,,0,0,5.7333,0.8667,14.1429,2.5714,0,0,180,298,3.6667,17.6667
2026-04-24,5,9,0.0,5.0,2.0,0.0,-3745.00,1876.00,13771.00,3745.00,5.5667,0.5667,14,1.2857,5621.00,0,180,293,0.6667,16
2026-04-23,0,1,0.0,0.0,0.0,1.0,0,-122.00,122.00,0,5.5667,2.7,14.1429,1.2857,0,122.00,179,293,2,19.6667
2026-04-22,48,1,36.0,9.0,1.0,0.0,-4688.00,699.00,699.00,9584.00,7.1,3.5,9.5714,1.2857,6905.00,1518.00,178,325,1.6667,15.3333
2026-04-21,0,0,,,,,,,0,0,7.1667,4.0333,9.5714,1.2857,0,0,178,325,2.3333,15.3333
2026-04-20,11,5,11.0,0.0,0.0,5.0,2425.00,-494.00,494.00,2425.00,6.8333,4.0333,8,0.5714,0,2919.00,174,314,0.6667,13
2026-04-17,35,0,25.0,10.0,0.0,0.0,5040.00,0,0,7730.00,5.9667,4.1333,3.8571,0.5714,1345.00,6385.00,176,308,1,1.6667
2026-04-16,0,2,0.0,0.0,0.0,2.0,0,-470.00,470.00,0,6.1333,4.0667,5,0.2857,0,470.00,174,308,0.6667,7
2026-04-15,4,0,4.0,0.0,0.0,0.0,617.00,0,0,617.00,6,4.0667,5,0.4286,0,617.00,190,308,0.6667,5.6667
2026-04-14,1,1,0.0,1.0,0.0,1.0,-229.00,-40.00,40.00,229.00,6.3333,4.0333,5,0.4286,229.00,40.00,191,307,0.3333,5.3333
2026-04-13,16,1,0.0,16.0,1.0,0.0,-5136.00,21.00,21.00,5136.00,6.8333,4,3.2857,0.2857,5157.00,0,191,291,0,2
2026-04-10,0,0,,,,,,,0,0,6.8333,4,3.4286,0.5714,0,0,191,291,0,4.6667
2026-04-09,0,0,,,,,,,0,0,6.9667,4.3333,4.1429,0.5714,0,0,191,291,0.3333,6
2026-04-08,6,0,0.0,0.0,0.0,0.0,0,0,0,4770.00,6.8,4.4,3.2857,0.5714,0,0,191,291,0.6667,4.3333
2026-04-07,8,0,0.0,8.0,0.0,0.0,-80.00,0,0,80.00,8.6,4.4333,2.1429,0.5714,80.00,0,191,283,0.6667,3
2026-04-06,4,1,4.0,0.0,1.0,0.0,524.00,195.00,195.00,524.00,11.1,4.4,1.5714,0.4286,195.00,524.00,190,279,1,2
2026-04-02,1,1,0.0,1.0,1.0,0.0,-100.00,500.00,500.00,100.00,11.8333,4.4,1.8571,0.2857,600.00,0,190,278,0.6667,3.3333
2026-04-01,4,0,0.0,4.0,0.0,0.0,-2470.00,0,0,2470.00,12.1,4.4,1.2857,0.2857,2470.00,0,190,276,0.6667,2
2026-03-31,1,2,0.0,1.0,0.0,2.0,-250.00,-568.00,568.00,250.00,12.4333,4.3333,1.5714,0,250.00,568.00,189,275,0,1.6667
2026-03-30,5,0,2.0,3.0,0.0,0.0,180.00,0,0,1158.00,13.0333,4.5333,1.1429,0.1429,489.00,669.00,189,277,0,0
2026-03-27,0,0,,,,,,,0,0,13.4,8.7,1.4286,0.1429,0,0,189,277,0,1
2026-03-26,0,0,,,,,,,0,0,13.6333,8.8,2.1429,0.1429,0,0,189,277,0,1
2026-03-25,0,0,,,,,,,0,0,14.8667,8.9,3.2857,0.1429,0,0,189,277,0,2
2026-03-24,3,0,3.0,0.0,0.0,0.0,2100.00,0,0,2100.00,15.2,8.9333,2.8571,0.2857,0,2100.00,189,274,0.3333,1.6667
2026-03-23,0,0,,,,,,,0,0,18.3333,9.3667,2.8571,0.2857,0,0,189,274,0.3333,2.3333
2026-03-20,3,0,0.0,1.0,0.0,0.0,-1.00,0,0,551.00,18.5667,9.7,2.4286,9.5714,1.00,0,193,325,0.3333,3
2026-03-19,2,1,2.0,0.0,0.0,1.0,1750.00,-200.00,200.00,1750.00,19.2667,9.6667,15.5714,13,0,1950.00,194,324,0,5
2026-03-18,2,0,1.0,0.0,0.0,0.0,470.00,0,0,1000.00,19.3667,9.8,15.5714,15.2857,0,470.00,194,323,0.3333,4.3333
2026-03-17,5,0,3.0,2.0,0.0,0.0,1160.00,0,0,1920.00,19.2,9.8,15,16,380.00,1540.00,194,322,0.3333,2.6667
2026-03-16,8,0,1.0,7.0,0.0,0.0,-4436.00,0,0,4840.00,18.9333,9.8667,15.1429,16.4286,4638.00,202.00,194,325,22,0
2026-03-13,0,1,0.0,0.0,0.0,1.0,0,-980.00,980.00,0,18.9333,9.9,15.8571,16.2857,0,980.00,194,325,30,31.3333
2026-03-12,0,0,,,,,,,0,0,18.9667,10.2333,15.8571,16.2857,0,0,207,325,35.3333,32
2026-03-11,0,65,0.0,0.0,2.0,60.0,0,-48082.00,55343.00,0,18.9667,8.1667,17.4286,7,1598.00,49680.00,228,325,15.3333,32.3333
2026-03-10,94,25,47.0,47.0,2.0,23.0,10723.00,-44951.00,46991.00,39599.00,15.9,7.3333,8.4286,3.4286,15458.00,71132.00,227,281,8,4
2026-03-09,2,16,2.0,0.0,1.0,15.0,496.00,-7977.00,9633.00,496.00,15.8333,6.8,8.1429,1.1429,828.00,9301.00,213,289,2.6667,5
2026-03-06,1,5,0.0,1.0,4.0,1.0,-410.00,2316.00,3976.00,410.00,15.9,6.6667,8.5714,1.8571,3556.00,830.00,212,288,1,4.6667
2026-03-05,9,3,0.0,9.0,2.0,1.0,-5229.00,-35.00,2031.00,5229.00,16.2333,6.6,7.4286,1.7143,6227.00,1033.00,209,279,0,5.3333
2026-03-04,5,0,5.0,0.0,0.0,0.0,2407.00,0,0,2407.00,16.3,6.6333,15.5714,1.8571,0,2407.00,209,279,0,14
2026-03-03,0,0,,,,,,,0,0,16.7,6.7,26.8571,1.8571,0,0,209,279,0,14
2026-03-02,11,0,11.0,0.0,0.0,0.0,8655.00,0,0,8655.00,21.7333,11.8667,28.5714,2,0,8655.00,209,280,3.3333,11.6667
2026-02-27,31,0,31.0,0.0,0.0,0.0,9517.00,0,0,9517.00,26.6333,17.1333,25.8571,2,0,9517.00,209,249,4,1.6667
2026-02-26,0,0,,,,,,,0,0,35.4333,25.9,27.4286,2,0,0,209,249,4.3333,22.3333
2026-02-25,4,10,2.0,1.0,10.0,0.0,-88.00,2700.00,2700.00,6087.00,44.7,34.5,30.1429,1.4286,4900.00,2112.00,199,246,1,47.3333
2026-02-24,1,2,1.0,0.0,1.0,1.0,5300.00,3.00,3923.00,5300.00,52.5,41.2,31.5714,19,1963.00,7260.00,198,247,0.6667,54.6667
2026-02-23,62,1,12.0,50.0,0.0,1.0,-22686.00,-5.00,5.00,46934.00,50.6667,41.1667,23.7143,19.2857,34810.00,12129.00,197,227,0.3333,38
2026-02-20,79,0,70.0,7.0,0.0,0.0,64773.00,0,0,72735.00,48.0333,41.6333,17.7143,19.7143,3581.00,68354.00,276,310,0.3333,15.3333
2026-02-19,23,1,17.0,0.0,0.0,1.0,12135.00,-5.00,5.00,15855.00,47.2667,41.6,16.2857,19.7143,0,12140.00,277,317,2,15.3333
2026-02-18,12,0,4.0,4.0,0.0,0.0,1527.00,0,0,16143.00,46.9,41.6,28,21.5714,4188.00,5715.00,277,308,43.6667,15
2026-02-17,11,0,6.0,5.0,0.0,0.0,607.00,0,0,6685.00,47.5,42.4667,27.8571,23,3039.00,3646.00,277,309,44.6667,13.6667
2026-02-13,23,6,16.0,7.0,0.0,4.0,6721.00,-1100.00,2605.00,12205.00,46.9,42.2667,27.8571,22.1429,2742.00,10563.00,273,300,43.6667,18.3333
2026-02-12,11,125,4.0,7.0,57.0,56.0,367.00,-9639.00,79031.00,6281.00,46.5333,38.1333,27,4.8571,33848.00,43854.00,149,303,2.3333,19
2026-02-11,7,3,0.0,1.0,1.0,2.0,-218.00,151.00,167.00,2063.00,46.3333,38.3,26,4.4286,377.00,8.00,148,304,5.6667,48
2026-02-10,37,3,32.0,5.0,0.0,3.0,4340.00,-579.00,579.00,10984.00,45.1333,38.2,20.7143,4.2857,3322.00,8241.00,145,271,8,39
2026-02-09,13,1,3.0,7.0,0.0,1.0,-1800.00,-12.00,12.00,12395.00,44.7,38.1667,18.8571,4.4286,6210.00,4422.00,145,271,7.6667,42.3333
2026-02-06,94,13,40.0,49.0,9.0,4.0,-10452.00,2437.00,4567.00,48942.00,41.5667,37.7333,5.5714,4,29884.00,16995.00,154,229,4.6667,12.6667
2026-02-05,10,10,4.0,6.0,7.0,3.0,-342.00,2738.00,3282.00,2188.00,41.7,37.6667,4.1429,3,4275.00,1195.00,150,225,1.3333,9.3333
2026-02-04,23,0,9.0,6.0,0.0,0.0,-3348.00,0,0,7058.00,66.4,50.4,1.1429,3,4828.00,1480.00,150,209,2,1.6667
2026-02-03,5,4,2.0,3.0,0.0,4.0,-361.00,-1314.00,1314.00,1875.00,84.1667,68.2333,0.4286,2.4286,1118.00,2071.00,150,210,1.3333,0
2026-02-02,0,0,,,,,,,0,0,97.5667,81.7667,0.8571,2.5714,0,0,150,210,4.6667,0.3333
2026-01-30,0,2,0.0,0.0,1.0,1.0,0,57.00,339.00,0,114.1667,98.5333,3.5714,2.4286,198.00,141.00,148,210,5,0.3333
2026-01-29,0,2,0.0,0.0,0.0,2.0,0,-570.00,570.00,0,114.4,98.6333,4.5714,2.2857,0,570.00,148,210,4.3333,1
2026-01-28,1,10,0.0,1.0,0.0,10.0,-147.00,-920.00,920.00,147.00,114.4,98.6333,6.1429,1.1429,147.00,920.00,150,209,1,0.6667
2026-01-27,0,3,0.0,0.0,2.0,1.0,0,572.00,986.00,0,114.4,98.6,29.2857,22.8571,779.00,207.00,148,209,0.3333,1.6667
2026-01-26,2,0,2.0,0.0,0.0,0.0,1032.00,0,0,1032.00,114.4333,98.6667,54.4286,45.4286,0,1032.00,148,210,0.6667,7.3333
2026-01-23,0,0,,,,,,,0,0,114.7667,99.6667,92.1429,83,0,0,148,210,1,9.6667
2026-01-22,3,1,2.0,1.0,0.0,1.0,-192.00,-240.00,240.00,608.00,114.8333,99.7,132,121.1429,400.00,448.00,149,210,1.3333,12.6667
2026-01-21,19,1,15.0,4.0,0.0,1.0,-468.00,-125.00,125.00,8718.00,114.2,99.7,162.8571,150,4593.00,4250.00,148,193,52.6667,60.3333
2026-01-20,7,1,1.0,6.0,0.0,1.0,-821.00,-240.00,240.00,1081.00,114.1333,99.7,162.8571,149.8571,951.00,370.00,148,191,105,117.3333
2026-01-16,12,2,2.0,6.0,1.0,1.0,-1677.00,219.00,311.00,7127.00,116.6,99.7,161.1429,151.5714,2167.00,271.00,619,663,192,201.3333
2026-01-15,162,155,22.0,105.0,120.0,2.0,-1709.00,739.00,1543.00,3323.00,111.2333,94.7,138,129.4286,3202.00,754.00,657,693,229.6667,241.3333
2026-01-14,178,158,24.0,154.0,151.0,2.0,2806.00,2347.00,2677.00,12078.00,105.4667,89.7,112.7143,106.8571,7123.00,7582.00,695,714,244.6667,260.3333
2026-01-13,264,263,11.0,249.0,263.0,0.0,-4294.00,3844.00,3844.00,4828.00,96.8333,81.1333,79.1429,73,8355.00,217.00,819,839,157,174.6667
2026-01-12,282,268,17.0,260.0,223.0,40.0,-5748.00,2564.00,5859.00,14035.00,87.5667,72.2667,39.5714,34.7143,13933.00,5621.00,964,971,72.3333,80.6667
2026-01-09,235,203,19.0,212.0,191.0,0.0,-4526.00,4565.00,4915.00,12706.00,81.1667,65.6,6,5.8571,13091.00,4000.00,1157,1130,4.6667,2.3333
2026-01-08,7,0,3.0,3.0,0.0,0.0,294.00,0,0,4697.00,82.2,65.6667,5.1429,7,1404.00,1698.00,1157,1127,4.6667,0.3333
2026-01-07,0,14,0.0,0.0,3.0,11.0,0,-5146.00,7504.00,0,100.4,74.8,5.2857,5,1179.00,6325.00,1146,1127,8.6667,10
2026-01-06,0,0,,,,,,,0,0,100.4333,75.2,5.2857,5,0,0,1146,1127,8.6667,11.6667
2026-01-05,1,0,1.0,0.0,0.0,0.0,285.00,0,0,285.00,118.3667,93,5.1429,5,0,285.00,1146,1126,9,11.3333
2026-01-02,29,26,14.0,7.0,6.0,14.0,247.00,-520.00,1186.00,2243.00,148.9667,122.2667,3,2.4286,1031.00,1798.00,1120,1099,3,2
2025-12-31,5,0,0.0,5.0,0.0,0.0,-4250.00,0,0,4250.00,148.9667,122.7667,111.4286,57,4250.00,0,1120,1100,3,0.6667
2025-12-30,0,1,0.0,0.0,1.0,0.0,0,15.00,15.00,0,149.1333,122.9667,188.2857,133.8571,15.00,0,1119,1100,2.6667,0.6667
2025-12-29,1,8,0.0,1.0,0.0,2.0,-85.00,-894.00,3874.00,85.00,149.9,122.8333,245.5714,190.7143,85.00,894.00,1121,1100,0,0.3333
2025-12-26,1,0,1.0,0.0,0.0,0.0,330.00,0,0,330.00,149.9667,123.3667,316.5714,262.8571,0,330.00,1121,1099,2.6667,4.6667
2025-12-24,0,0,,,,,,,0,0,150.3,124.7,317.5714,263.5714,0,0,1121,1099,130,259.3333
2025-12-23,0,0,,,,,,,0,0,150.4,125.1,317.7143,265,0,0,1121,1099,309.6667,438.6667
2025-12-22,14,8,3.0,11.0,4.0,4.0,-1964.00,640.00,4000.00,8464.00,150.1667,124.9,315.7143,264.1429,7534.00,4930.00,1118,1087,442.3333,568
2025-12-19,764,382,380.0,382.0,118.0,263.0,58592.00,1669.00,20135.00,88767.00,124.9,112.9667,207,209.8571,25667.00,82590.00,1406,1426,483.3333,479.3333
2025-12-18,538,539,286.0,252.0,310.0,229.0,41546.00,-1114.00,18310.00,55370.00,110.1,95.5667,131.5714,137.1429,15510.00,58170.00,1405,1426,305.3333,302.3333
2025-12-17,402,406,213.0,171.0,213.0,193.0,25237.00,-5912.00,12248.00,41492.00,97.3667,82.3333,74.8571,79.4286,10848.00,41997.00,1304,1323,173.3333,168.6667
2025-12-16,498,505,248.0,3.0,251.0,254.0,32658.00,-10180.00,15574.00,44513.00,83.4333,133.9333,3.7143,7.4286,3067.00,45905.00,1189,1200,5.6667,2.6667
2025-12-15,7,5,3.0,1.0,1.0,4.0,317.00,200.00,460.00,757.00,150.9,204.0333,3.4286,6.8571,385.00,502.00,1191,1201,4.6667,1.3333
2025-12-12,1,10,1.0,0.0,0.0,10.0,400.00,-54.00,54.00,400.00,151.3333,205.5,15.5714,5.7143,0,454.00,1191,1201,11.3333,4.3333
2025-12-11,0,2,0.0,0.0,1.0,1.0,0,6.00,212.00,0,214.9333,239.4,15.7143,6.1429,109.00,103.00,1190,1201,11.3333,6
2025-12-10,3,2,0.0,3.0,0.0,2.0,-900.00,-363.00,363.00,900.00,214.8333,239.6333,16,7,900.00,363.00,1191,1201,11,5
2025-12-09,10,30,6.0,3.0,14.0,16.0,1484.00,2399.00,3537.00,2331.00,214.5667,238.6333,15.2857,3.5714,3369.00,2454.00,1179,1200,1.3333,3.3333
2025-12-08,5,2,1.0,4.0,0.0,2.0,-631.00,-120.00,120.00,861.00,214.4,238.5667,15.1429,3.5714,746.00,235.00,1181,1198,1.3333,30.3333
2025-12-05,0,1,0.0,0.0,1.0,0.0,0,150.00,150.00,0,214.6333,238.6,21.2857,3.8571,150.00,0,1181,1198,2.6667,30.6667
2025-12-04,5,1,1.0,4.0,0.0,0.0,-1835.00,0,1155.00,2175.00,214.5,238.7333,26,4,2005.00,170.00,1181,1194,5,30.6667
2025-12-03,86,2,12.0,43.0,0.0,2.0,-12335.00,-78.00,78.00,40457.00,212.3333,239,91.7143,44.8571,18491.00,6234.00,1181,1175,6.3333,3.6667
2025-12-02,1,5,0.0,1.0,4.0,1.0,-540.00,2189.00,2469.00,540.00,212.5333,238.9,91.7143,45.8571,2869.00,140.00,1183,1174,5.3333,4.6667
2025-12-01,5,8,4.0,1.0,3.0,5.0,1039.00,-415.00,781.00,1693.00,222.3333,248.2,168,121,510.00,1964.00,1180,1171,3.6667,17.3333
2025-11-28,5,6,3.0,2.0,3.0,3.0,-913.00,-250.00,500.00,1927.00,238.4667,280.2667,302.5714,249.2857,1545.00,882.00,1182,1169,2.3333,28.3333
2025-11-26,4,2,3.0,1.0,0.0,2.0,1995.00,-637.00,637.00,2795.00,245.9,295.0333,302.7143,251.1429,400.00,3032.00,1182,1168,97.6667,209
2025-11-25,43,3,12.0,31.0,1.0,2.0,349.00,-81.00,201.00,6921.00,244.5,295.4667,297.2857,251.7143,3346.00,3776.00,1182,1139,100.6667,195
2025-11-24,38,2,5.0,3.0,0.0,2.0,708.00,-345.00,345.00,7032.00,243.2667,295.5,295.2857,252,762.00,1815.00,1180,1103,278,362
2025-11-21,546,288,370.0,149.0,155.0,113.0,53772.00,5270.00,22694.00,109675.00,225.1333,285.9333,217.7143,213.1429,36826.00,85328.00,2007,1691,483.3333,495.6667
2025-11-20,1,12,1.0,0.0,9.0,3.0,5.00,733.00,2425.00,5.00,225.1,285.9333,219,217.1429,1579.00,851.00,2021,1690,484.3333,497
2025-11-19,539,534,308.0,223.0,425.0,93.0,18544.00,14407.00,34353.00,63767.00,207.2333,268.2667,142.4286,142.5714,45884.00,50021.00,1988,1627,308.6667,319
2025-11-18,947,904,409.0,532.0,569.0,306.0,32181.00,896.00,61757.00,149397.00,176.0333,238.8,8.1429,13.7143,87702.00,118987.00,1986,1484,8.6667,11.3333
2025-11-17,5,15,4.0,1.0,5.0,9.0,-274.00,-609.00,9731.00,514.00,176.0667,238.7333,8.2857,15,4580.00,4915.00,1986,1487,9,10.6667
2025-11-14,5,7,3.0,2.0,3.0,4.0,730.00,-236.00,1352.00,1206.00,175.9667,238.6,21,16.4286,796.00,1762.00,1981,1484,20,12.3333
2025-11-13,24,4,6.0,17.0,0.0,3.0,949.00,-815.00,1020.00,5199.00,175.2667,238.5,20.4286,17.1429,2120.00,3884.00,1983,1492,22.6667,5.3333
2025-11-12,3,16,2.0,1.0,6.0,5.0,56.00,-253.00,3861.00,156.00,175.3667,238.1,31.4286,308.1429,1329.00,1638.00,1969,1493,18,6.6667
2025-11-11,10,40,4.0,5.0,12.0,24.0,632.00,-3226.00,9416.00,7992.00,175.2667,237.2667,320.1429,603.5714,6240.00,10098.00,1944,1491,12.6667,5.3333
2025-11-10,3,12,1.0,2.0,0.0,12.0,-705.00,-6490.00,6490.00,1105.00,175.5,237.2333,321.7143,609.5714,905.00,6690.00,1949,1489,14.3333,35.6667
2025-11-07,7,2,1.0,0.0,1.0,0.0,250.00,352.00,552.00,370.00,175.4333,237.2333,593.2857,754.8571,352.00,250.00,1947,1492,16.6667,40
2025-11-06,6,24,5.0,1.0,20.0,4.0,1258.00,-1025.00,2885.00,1338.00,175.2667,236.5333,592.4286,752.7143,970.00,3253.00,1951,1488,693,64.6667
2025-11-05,94,17,81.0,12.0,11.0,4.0,23222.00,2277.00,5864.00,30408.00,172.1667,235.9667,579.2857,750.2857,7121.00,28066.00,1949,1548,1390,710.3333
2025-11-04,20,9,7.0,11.0,7.0,1.0,532.00,2302.00,3758.00,2767.00,171.5333,235.6667,576.4286,749,3325.00,1555.00,1952,1543,1405,708.3333
2025-11-03,80,2053,46.0,17.0,1002.0,1014.0,8711.00,87252.00,199740.00,17476.00,169.2333,167.5333,566,456,133496.00,54955.00,1415,1466,1060.3333,1317.6667
2025-10-31,2031,2108,1035.0,952.0,1716.0,377.0,147228.00,385290.00,510918.00,204135.00,115.5333,109.2,276,155.5714,473545.00,235483.00,1279,1294,360.6667,640.6667
2025-10-30,14,54,6.0,6.0,46.0,6.0,-819.00,30379.00,33687.00,5341.00,122.7667,119.4,277,149.2857,33958.00,2760.00,1236,1283,342.6667,636.6667
2025-10-29,1908,1019,938.0,908.0,582.0,418.0,141091.00,65160.00,166388.00,317875.00,89.4667,114.7,5.4286,4,195696.00,271627.00,1148,1187,3,0.6667
2025-10-28,0,9,0.0,0.0,2.0,4.0,0,-2050.00,6255.00,0,89.4667,114.4,48.1429,43.7143,670.00,2720.00,1146,1187,0.6667,3
2025-10-27,2,0,2.0,0.0,0.0,0.0,1712.00,0,0,1712.00,89.5667,114.4667,117.7143,182,0,1712.00,1146,1185,2.3333,2.6667
2025-10-24,0,0,,,,,,,0,0,89.5667,114.5,150.1429,245.5714,0,0,1146,1185,5.6667,9.6667
2025-10-23,7,2,2.0,5.0,1.0,0.0,38.00,203.00,398.00,622.00,89.6,114.4333,149.2857,247.5714,495.00,330.00,1148,1183,5.6667,9.6667
2025-10-22,1,5,0.0,0.0,3.0,1.0,0,391.00,939.00,280.00,89.6667,114.2667,149.2857,247.2857,615.00,224.00,1143,1183,99.6667,109
2025-10-21,21,10,2.0,19.0,7.0,3.0,-5836.00,4197.00,7483.00,6324.00,89.5667,115.3,146.5714,246,11920.00,1887.00,1134,1165,419,265
2025-10-20,7,2,1.0,4.0,0.0,1.0,-147.00,-330.00,730.00,882.00,89.5333,115.2333,145.5714,247.4286,257.00,440.00,1132,1161,566.6667,338.3333
2025-10-17,299,287,171.0,109.0,230.0,26.0,17274.00,40743.00,54049.00,77626.00,79.6,105.8667,103.2857,207,72467.00,48998.00,1339,1891,476.3333,239
2025-10-16,489,968,347.0,137.0,645.0,297.0,62666.00,33665.00,90574.00,118744.00,63.4333,73.6667,35,71.5714,89301.00,118302.00,1169,1408,154.6667,76.3333
2025-10-15,227,445,63.0,155.0,328.0,49.0,-20826.00,29237.00,45411.00,55034.00,56.1333,59.7,3.4286,9.8571,72934.00,22871.00,1185,1189,6.6667,1.3333
2025-10-14,1,16,1.0,0.0,7.0,3.0,955.00,1395.00,7511.00,955.00,57,60.0667,3.5714,8,2793.00,2353.00,1181,1188,5.3333,1
2025-10-13,1,3,0.0,1.0,2.0,1.0,-15.00,864.00,1610.00,15.00,56.9667,59.9667,3.8571,7.7143,1252.00,373.00,1178,1189,5.6667,1.6667
2025-10-10,2,1,0.0,1.0,0.0,1.0,-185.00,-49.00,49.00,290.00,56.9,59.9667,4.4286,8.1429,185.00,49.00,1177,1189,12,4.6667
2025-10-09,0,12,0.0,0.0,7.0,2.0,0,946.00,3703.00,0,57.0667,59.6,5.4286,8.5714,1147.00,201.00,1174,1189,12.3333,6.6667
2025-10-08,3,4,3.0,0.0,0.0,4.0,348.00,-1286.00,1286.00,348.00,56.9667,59.4667,6.4286,9.5714,0,1634.00,1170,1189,12,6.3333
2025-10-07,11,20,4.0,4.0,14.0,5.0,217.00,1735.00,9919.00,5383.00,56.9667,58.8667,5.5714,7,7550.00,6032.00,1160,1185,5.6667,3.6667
2025-10-06,6,13,1.0,3.0,0.0,12.0,-737.00,-3010.00,3155.00,2801.00,56.8,58.4667,4.8571,5.5714,1569.00,3842.00,1147,1179,2.6667,3.6667
2025-10-03,2,3,1.0,1.0,1.0,2.0,23.00,-31.00,331.00,343.00,57.3667,58.4333,4.7143,5.1429,310.00,364.00,1144,1178,6.6667,5.3333
2025-10-02,3,1,0.0,3.0,0.0,1.0,-615.00,-100.00,100.00,615.00,57.4667,58.5667,4.4286,5,615.00,100.00,1143,1177,10,7.6667
2025-10-01,6,4,1.0,4.0,3.0,0.0,4813.00,220.00,285.00,5942.00,57.4333,58.5667,5.1429,5.7143,457.00,5050.00,1147,1179,9.3333,7.3333
2025-09-30,7,15,1.0,4.0,5.0,10.0,-439.00,-257.00,2357.00,1269.00,57.2667,58.2667,64.1429,54.7143,1704.00,1522.00,1134,1172,5.3333,5.3333
2025-09-29,10,11,8.0,2.0,7.0,3.0,3830.00,5987.00,11373.00,4750.00,75,77.2667,95.7143,104.5714,6740.00,4583.00,1125,1162,1.6667,2.3333
2025-09-26,5,2,4.0,1.0,2.0,0.0,1272.00,455.00,455.00,1520.00,89.8667,108.1333,224.8571,229.7143,579.00,1396.00,1123,1157,1,1
2025-09-25,1,3,0.0,1.0,3.0,0.0,-58.00,420.00,420.00,58.00,89.8667,108.0333,224.7143,229.2857,478.00,0,1121,1156,3,4.3333
2025-09-24,1,0,1.0,0.0,0.0,0.0,500.00,0,0,500.00,89.8667,108.0333,225.2857,229.5714,0,500.00,1121,1155,122.3333,144
2025-09-23,1,0,0.0,1.0,0.0,0.0,-75.00,0,0,75.00,89.9667,108.1667,225.1429,229.7143,75.00,0,1121,1155,242.3333,220.6667
2025-09-22,11,9,1.0,9.0,8.0,1.0,-1455.00,1079.00,1481.00,2315.00,89.8333,143.4667,224.7143,228.4286,3015.00,481.00,1121,1149,532,520
2025-09-19,420,358,306.0,97.0,117.0,222.0,21504.00,-5611.00,31872.00,36758.00,76.0667,131.5333,165.1429,177.2857,19115.00,46230.00,1284,1754,412.6667,380
2025-09-18,231,360,177.0,48.0,185.0,116.0,14608.00,-1652.00,21071.00,22979.00,68.4667,119.5333,134.7143,131.7143,10200.00,26460.00,1206,1535,293.3333,304.6667
2025-09-17,909,878,779.0,84.0,664.0,179.0,123964.00,14936.00,43340.00,139749.00,38.2,90.3,5.7143,6.2857,35503.00,144531.00,1150,1147,1,1.6667
2025-09-16,0,0,,,,,,,0,0,38.4333,105.9667,5.8571,7.1429,0,0,1150,1147,1,4.3333
2025-09-15,5,2,0.0,5.0,0.0,2.0,-1025.00,-300.00,300.00,1025.00,41.0667,123.2,5.7143,7.1429,1025.00,300.00,1148,1142,0.3333,3.6667
2025-09-12,0,1,0.0,0.0,0.0,1.0,0,-130.00,130.00,0,105.4,123.6667,6.8571,10.7143,0,130.00,1147,1142,13.6667,9.6667
2025-09-11,8,0,2.0,5.0,0.0,0.0,-788.00,0,0,2443.00,105.1333,123.6667,9.5714,14.5714,1533.00,745.00,1147,1142,13.6667,9
2025-09-10,3,0,3.0,0.0,0.0,0.0,645.00,0,0,645.00,105.0333,123.6667,9.1429,14.5714,0,645.00,1147,1143,15.6667,8.3333
2025-09-09,18,41,18.0,0.0,21.0,10.0,2700.00,5570.00,11634.00,2700.00,104.4667,122.4667,6.5714,8.8571,7177.00,4307.00,1107,1161,2.6667,3.6667
2025-09-08,6,0,3.0,3.0,0.0,0.0,644.00,0,0,2332.00,104.2667,122.4667,6.4286,9,844.00,1488.00,1107,1163,11.3333,4.3333
2025-09-05,1,6,1.0,0.0,3.0,3.0,650.00,-85.00,885.00,650.00,104.2333,122.3333,6.2857,8.1429,400.00,1135.00,1102,1164,18.3333,13
2025-09-04,4,2,0.0,4.0,0.0,2.0,-856.00,-370.00,370.00,856.00,133.6,122.2667,7.2857,8.1429,856.00,370.00,1100,1162,17.6667,11.6667
2025-09-03,8,26,2.0,5.0,10.0,16.0,-696.00,46.00,1734.00,2716.00,133.3333,121.4,6.2857,4.5714,2446.00,1704.00,1084,1155,9.3333,9
2025-09-02,27,27,2.0,22.0,14.0,5.0,-2781.00,804.00,1764.00,3498.00,132.5,120.5,5.1429,1,4136.00,551.00,1111,1179,0.6667,1.6667
2025-08-29,0,0,,,,,,,0,0,147.3667,135.2333,6,1.7143,0,0,1111,1179,0.6667,1.6667
2025-08-28,0,1,0.0,0.0,1.0,0.0,0,174.00,174.00,0,163.9333,168.3333,6.7143,2.1429,174.00,0,1110,1179,1,5.3333
2025-08-27,5,1,0.0,5.0,0.0,1.0,-75.00,-375.00,375.00,75.00,163.7667,168.3,6.2857,2.8571,75.00,375.00,1111,1174,1,4
2025-08-26,0,0,,,,,,,0,0,163.7667,168.3333,83.7143,85.8571,0,0,1111,1174,1.6667,10.3333
2025-08-25,11,2,11.0,0.0,1.0,1.0,1885.00,90.00,690.00,1885.00,163.5,168.2667,146.5714,218.1429,390.00,2185.00,1110,1165,2.6667,8.6667
2025-08-22,1,1,0.0,1.0,0.0,1.0,-120.00,-339.00,339.00,120.00,163.4667,168.2333,146.5714,218,120.00,339.00,1109,1166,3.6667,10
2025-08-21,19,2,8.0,11.0,2.0,0.0,-341.00,275.00,275.00,2519.00,162.8667,168.1667,144,217.7143,1705.00,1089.00,1108,1147,5,4.3333
2025-08-20,6,5,2.0,4.0,0.0,5.0,-314.00,-2013.00,2013.00,750.00,162.6667,168,143.7143,217.5714,532.00,2231.00,1105,1141,197,183
2025-08-19,5,4,5.0,0.0,0.0,4.0,520.00,-805.00,805.00,520.00,162.5333,167.8667,144,369.5714,0,1325.00,1101,1136,505,331.6667
2025-08-18,2,6,0.0,1.0,3.0,3.0,-413.00,-239.00,1107.00,1413.00,162.5333,167.6667,144.7143,368.7143,847.00,673.00,1095,1134,503,331.3333
2025-08-15,542,581,471.0,55.0,205.0,357.0,36498.00,22439.00,55525.00,48998.00,144.5333,148.3,67.7143,285.7143,44167.00,58226.00,1805,1873,309.3333,151
2025-08-14,451,928,434.0,16.0,503.0,386.0,159309.00,-7119.00,36789.00,169145.00,129.5667,117.3667,3.4286,153.2857,18763.00,185191.00,1360,1423,1.3333,2
2025-08-13,1,0,1.0,0.0,0.0,0.0,5.00,0,0,5.00,130.4667,117.7667,4.2857,220.4286,0,5.00,1360,1424,357.3333,4
2025-08-12,1,0,1.0,0.0,0.0,0.0,10.00,0,0,10.00,130.4333,117.7667,16.1429,294.5714,0,10.00,1360,1424,357.3333,6
2025-08-11,4,4,0.0,4.0,0.0,4.0,-469.00,-1272.00,1272.00,469.00,130.3333,117.6333,291.2857,296.1429,469.00,1272.00,1356,1424,356,5.6667
2025-08-08,7,1068,3.0,4.0,459.0,559.0,-40.00,34623.00,87395.00,2140.00,133.8,82.0333,290.2857,143.5714,61099.00,26436.00,1163,1419,0.3333,3.6667
2025-08-07,7,0,0.0,7.0,0.0,0.0,-7422.00,0,0,7422.00,133.5667,82.0333,289.2857,143.5714,7422.00,0,1163,1418,157,3.6667
2025-08-06,3,0,0.0,3.0,0.0,0.0,-482.00,0,0,482.00,133.4667,82.0333,289,144.2857,482.00,0,1165,1417,330,30.6667
2025-08-05,1,1,1.0,0.0,0.0,1.0,5.00,-135.00,135.00,5.00,135.3667,82.0667,288.8571,144.1429,0,140.00,1164,1417,334.6667,673.6667
2025-08-04,7,470,1.0,6.0,368.0,101.0,-6085.00,23660.00,34800.00,6405.00,143.9,75.1,287.8571,77.2857,35445.00,5700.00,1150,1411,178,671.3333
2025-08-01,84,519,36.0,42.0,358.0,63.0,-667.00,9093.00,32975.00,6042.00,149.5333,66.2,402.2857,3.1429,23581.00,13821.00,1067,1357,5,643.3333
2025-07-31,1930,15,1303.0,523.0,4.0,11.0,258788.00,-4280.00,6094.00,312769.00,89.0667,65.7,126.5714,1,25075.00,288143.00,1056,1286,1.6667,0.3333
2025-07-30,0,0,,,,,,,0,0,92.5333,65.7,126.8571,1,0,0,1056,1286,1.6667,0.3333
2025-07-29,0,0,,,,,,,0,0,95.9667,65.7,190.5714,64.1429,0,0,1056,1286,2.3333,0.3333
2025-07-28,1,5,1.0,0.0,3.0,2.0,240.00,-975.00,1145.00,240.00,95.9667,65.5333,261.4286,205.4286,85.00,1300.00,1052,1286,0.6667,295
2025-07-25,0,0,,,,,,,0,0,95.9667,65.7,261.4286,205.4286,0,0,1052,1286,0.6667,295
2025-07-24,0,2,0.0,0.0,2.0,0.0,0,692.00,692.00,0,95.9667,65.6333,261.4286,205.2857,692.00,0,1052,1286,0,295.6667
2025-07-23,885,0,526.0,149.0,0.0,0.0,175942.00,0,0,296449.00,66.4667,65.6333,135.4286,205.2857,29221.00,205163.00,1052,1109,147.3333,149.3333
2025-07-22,0,0,,,,,,,0,0,66.5333,65.6333,135.4286,205.2857,0,0,1052,1109,478.6667,315
2025-07-21,2,0,0.0,2.0,0.0,0.0,-6060.00,0,0,6060.00,66.4667,65.6667,135.2857,205.2857,6060.00,0,1052,1107,478.6667,314.3333
2025-07-18,446,442,424.0,7.0,364.0,38.0,124614.00,16154.00,18101.00,132630.00,51.7667,50.9333,71.5714,142.1429,18483.00,126943.00,719,1610,331.6667,165.6667
2025-07-17,497,994,158.0,280.0,663.0,200.0,-780.00,18901.00,37153.00,26907.00,35.2,17.8,0.7143,0.1429,38413.00,18732.00,617,1136,0.3333,1
2025-07-16,0,0,,,,,,,0,0,35.2,17.8,1,0.1429,0,0,617,1136,0.3333,1
2025-07-15,0,1,0.0,0.0,0.0,1.0,0,-470.00,470.00,0,35.2333,17.7667,1.2857,0,0,470.00,616,1136,0,1.3333
2025-07-14,3,0,2.0,1.0,0.0,0.0,-20.00,0,0,656.00,35.1667,17.7667,1.1429,0,338.00,318.00,616,1137,0,0.3333
2025-07-11,0,0,,,,,,,0,0,35.1667,17.7667,5.1429,1.7143,0,0,616,1137,0,0.6667
2025-07-10,1,0,0.0,0.0,0.0,0.0,0,0,0,20.00,35.2,17.7667,5,1.7143,0,0,616,1136,0,1
2025-07-09,0,0,,,,,,,0,0,35.2,17.7667,5.1429,1.7143,0,0,616,1136,0,1.6667
2025-07-08,1,0,1.0,0.0,0.0,0.0,550.00,0,0,550.00,36,17.7667,20.8571,1.7143,0,550.00,616,1135,0,2
2025-07-07,2,0,1.0,0.0,0.0,0.0,1330.00,0,0,1900.00,35.9667,17.7667,20.5714,1.7143,0,1330.00,616,1135,4,10.6667
2025-07-03,2,0,1.0,1.0,0.0,0.0,-55.00,0,0,175.00,35.9,17.7667,20.2857,1.7143,115.00,60.00,616,1133,4,10
2025-07-02,2,0,1.0,1.0,0.0,0.0,-1130.00,0,0,1270.00,36.5333,18.3,28.2857,2,1200.00,70.00,616,1133,4,9.6667
2025-07-01,28,12,18.0,10.0,8.0,4.0,567.00,105.00,185.00,1441.00,36.9,17.9333,61.8571,37.5714,582.00,1044.00,618,1126,0,37.3333
2025-06-30,0,0,,,,,,,0,0,37.0667,17.9333,98,73.5714,0,0,618,1126,0,37.3333
2025-06-27,1,0,0.0,1.0,0.0,0.0,-30.00,0,0,30.00,37.0333,17.9333,114.4286,73.5714,30.00,0,618,1125,0,37
2025-06-26,111,0,91.0,13.0,0.0,0.0,3809.00,0,0,5801.00,33.6667,18.0667,113.4286,73.5714,856.00,4665.00,618,1015,0.6667,19.3333
2025-06-25,0,0,,,,,,,0,0,35.0333,18.1667,128.1429,73.5714,0,0,618,1015,87.6667,107
2025-06-24,0,0,,,,,,,0,0,35.0333,18.2,128.2857,73.5714,0,0,618,1015,171.6667,191.3333
2025-06-23,58,2,32.0,26.0,1.0,1.0,10665.00,115.00,285.00,13295.00,33.1,18.2333,120,74,1515.00,12065.00,617,967,171,210.6667
2025-06-20,263,261,246.0,16.0,9.0,249.0,13154.00,-7527.00,13233.00,15097.00,24.4,9.5667,82.4286,36.7143,3712.00,24393.00,380,747,84,157.6667
2025-06-18,253,252,225.0,16.0,18.0,228.0,14471.00,-7906.00,11363.00,16556.00,15.9667,1.2,46.2857,0.7143,2336.00,24713.00,129,494,0,107.6667
2025-06-17,116,0,34.0,64.0,0.0,0.0,-1746.00,0,0,7209.00,12.1667,1.6333,30,0.7143,3930.00,2184.00,133,378,0,69.3333
2025-06-16,104,0,6.0,93.0,0.0,0.0,-6786.00,0,0,8082.00,9.9333,1.7,15.1429,0.8571,7249.00,463.00,133,276,1.6667,34.6667
2025-06-13,103,0,22.0,71.0,0.0,0.0,-3669.00,0,0,8506.00,6.9,27.6333,1.1429,0.8571,5685.00,2016.00,133,173,1.6667,0.3333
2025-06-12,1,0,0.0,1.0,0.0,0.0,-140.00,0,0,140.00,33.7,27.6667,1,0.8571,140.00,0,133,172,1.6667,0
2025-06-11,0,5,0.0,0.0,1.0,4.0,0,-40.00,80.00,0,33.7667,27.5667,1,0.1429,20.00,60.00,128,172,0,0.6667
2025-06-10,0,0,,,,,,,0,0,33.7667,27.7,1.1429,0.1429,0,0,128,172,0.3333,0.6667
2025-06-09,0,0,,,,,,,0,0,33.8333,27.7333,1.2857,0.1429,0,0,128,172,0.3333,2.3333
2025-06-06,2,0,2.0,0.0,0.0,0.0,762.00,0,0,762.00,33.8667,27.7333,1,0.1429,0,762.00,128,170,0.3333,1.6667
2025-06-05,0,1,0.0,0.0,0.0,1.0,0,-25.00,25.00,0,33.9,27.7,1.2857,0,0,25.00,128,170,0,1.6667
2025-06-04,5,0,5.0,0.0,0.0,0.0,1950.00,0,0,1950.00,33.7333,27.7,0.5714,0,0,1950.00,128,166,0,0.3333
2025-06-03,0,0,,,,,,,0,0,33.7667,27.7,4.1429,0,0,0,128,166,0,0.6667
2025-06-02,0,0,,,,,,,0,0,33.7667,27.7667,4.2857,0,0,0,128,166,0,0.6667
2025-05-30,1,0,1.0,0.0,0.0,0.0,220.00,0,0,220.00,33.7667,27.7667,4.1429,0,0,220.00,128,165,0,1
2025-05-29,1,0,1.0,0.0,0.0,0.0,150.00,0,0,150.00,33.7667,27.8,7,2.2857,0,150.00,128,164,0,0.6667
2025-05-28,0,0,,,,,,,0,0,33.7667,27.8333,12.5714,2.4286,0,0,128,164,0,9
2025-05-27,2,0,2.0,0.0,0.0,0.0,670.00,0,0,670.00,33.7,27.9,13,2.4286,0,670.00,128,162,0,8.6667
2025-05-23,0,0,,,,,,,0,0,33.7,28.1,13,2.4286,0,0,128,162,0,8.6667
2025-05-22,25,0,0.0,0.0,0.0,0.0,0,0,0,13750.00,33.0333,28.1,10.8571,3,0,0,128,137,5.3333,7.3333
2025-05-21,1,0,0.0,1.0,0.0,0.0,-70.00,0,0,70.00,33,28.2,16.5714,3.4286,70.00,0,128,136,5.6667,20
2025-05-20,0,0,,,,,,,0,0,33.3333,33.1333,16.5714,3.5714,0,0,128,136,5.6667,21.6667
2025-05-19,21,16,9.0,1.0,6.0,10.0,2038.00,-740.00,3970.00,5280.00,33.6667,32.9333,13.5714,1.7143,1861.00,4639.00,113,117,0.3333,14.6667
2025-05-16,39,1,0.0,35.0,1.0,0.0,-3662.00,70.00,70.00,10312.00,32.5333,32.9,8.2857,1.7143,3732.00,0,1211,967,1.3333,5
2025-05-15,5,0,2.0,3.0,0.0,0.0,562.00,0,0,1318.00,32.4667,32.9333,7.5714,1.8571,378.00,940.00,1211,966,2.3333,17
2025-05-14,0,0,,,,,,,0,0,32.5667,32.9333,7.8571,3.7143,0,0,1211,966,2.6667,17
2025-05-13,10,4,10.0,0.0,2.0,2.0,15000.00,90.00,410.00,15000.00,32.2333,32.8333,11.7143,3.4286,250.00,15160.00,1210,966,2.3333,13.6667
2025-05-12,41,3,10.0,31.0,0.0,3.0,-94780.00,-130.00,130.00,127020.00,30.8667,32.7333,7.5714,114.1429,110900.00,16250.00,1210,999,1.6667,0.6667
2025-05-09,0,1,0.0,0.0,0.0,1.0,0,-245.00,245.00,0,30.9333,32.7,122.5714,114.1429,0,245.00,1209,999,1.6667,0.6667
2025-05-08,0,3,0.0,0.0,1.0,2.0,0,-75.00,215.00,0,30.9333,32.6333,122.8571,114,70.00,145.00,1206,999,5,1.3333
2025-05-07,2,1,2.0,0.0,0.0,1.0,215.00,-95.00,95.00,215.00,31.0667,32.6333,122.5714,114.4286,0,310.00,1205,997,5.3333,13
2025-05-06,0,1,0.0,0.0,0.0,1.0,0,-85.00,85.00,0,31.0667,32.6,122.8571,114.4286,0,85.00,1204,997,264.3333,17
2025-05-05,2,13,0.0,2.0,5.0,8.0,-605.00,-110.00,2220.00,605.00,31.1,33.3,123,112.5714,1660.00,1165.00,1201,997,260.3333,284.6667
2025-05-02,37,2,31.0,4.0,1.0,1.0,-60.00,-77.00,477.00,4420.00,31.5667,44.2667,117.8571,112.2857,2040.00,2057.00,1201,972,260.3333,273
2025-05-01,12,778,9.0,3.0,773.0,5.0,3034.00,239659.00,241309.00,5134.00,31.1667,18.4333,116.1429,1.1429,241534.00,4909.00,431,967,2.3333,269
2025-04-30,805,1,805.0,0.0,1.0,0.0,317560.00,290.00,290.00,317560.00,4.3667,18.5667,1.2857,1,290.00,317560.00,431,170,2.3333,1.3333
2025-04-29,2,2,2.0,0.0,2.0,0.0,1010.00,375.00,375.00,1010.00,4.3333,18.5,1,1,375.00,1010.00,431,168,1.6667,1.6667
2025-04-28,0,4,0.0,0.0,4.0,0.0,0,733.00,733.00,0,4.3333,18.4,1.1429,0.4286,733.00,0,430,168,0.3333,2
2025-04-25,2,1,1.0,1.0,0.0,1.0,102.00,-95.00,95.00,578.00,4.3,18.5667,1,0.4286,238.00,435.00,429,166,0,1.3333
2025-04-24,3,0,3.0,0.0,0.0,0.0,773.00,0,0,773.00,4.2,18.6667,0.5714,0.5714,0,773.00,429,163,0,0.6667
2025-04-23,1,0,0.0,1.0,0.0,0.0,-380.00,0,0,380.00,4.2,18.6667,0.4286,0.8571,380.00,0,429,162,0.6667,0.3333
2025-04-22,0,0,,,,,,,0,0,4.2,18.8667,0.4286,1.7143,0,0,429,162,0.6667,0.6667
2025-04-21,1,0,0.0,1.0,0.0,0.0,-80.00,0,0,80.00,4.2,19.0667,1,1.7143,80.00,0,429,161,1,0.6667
2025-04-17,0,2,0.0,0.0,1.0,1.0,0,435.00,605.00,0,4.2333,19.1667,1,1.8571,520.00,85.00,434,169,0.6667,0.6667
2025-04-16,1,0,0.0,1.0,0.0,0.0,-73.00,0,0,73.00,4.2,19.2,2.2857,23,73.00,0,434,168,1.3333,0.3333
2025-04-15,1,1,0.0,1.0,0.0,1.0,-264.00,-110.00,110.00,264.00,4.2333,19.2,6.5714,24.2857,264.00,110.00,433,168,3,0
2025-04-14,0,1,0.0,0.0,0.0,1.0,0,-510.00,510.00,0,4.2333,19.2,7.2857,24.1429,0,510.00,432,168,2.6667,1.6667
2025-04-11,0,2,0.0,0.0,0.0,1.0,0,-660.00,1150.00,0,4.2333,19.1667,7.7143,24,0,660.00,432,168,3,1.6667
2025-04-10,0,6,0.0,0.0,1.0,3.0,0,-150.00,2220.00,0,4.3,19.0667,8.1429,23.1429,635.00,785.00,431,168,50.3333,5
2025-04-09,5,0,5.0,0.0,0.0,0.0,515.00,0,0,515.00,4.2,19.0667,7.4286,23.2857,0,515.00,431,163,53.6667,13.6667
2025-04-08,0,3,0.0,0.0,2.0,0.0,0,3433.00,4823.00,0,4.2333333333333333,19.1000000000000000,7.4285714285714286,22.8571428571428571,3433.00,0,433,163,52.6666666666666667,15.3333333333333333
2025-04-07,10,148,8.0,2.0,44.0,102.0,961.00,-47746.00,127006.00,2459.00,4.1333333333333333,14.5333333333333333,6.2857142857142857,1.7142857142857143,39279.00,87986.00,385,154,3.6666666666666667,13.0000000000000000
2025-04-04,31,10,30.0,1.0,8.0,2.0,79220.00,7553.00,8767.00,79780.00,3.4333333333333333,14.3666666666666667,1.8571428571428571,0.42857142857142857143,8440.00,80107.00,375,123,0.33333333333333333333,3.6666666666666667
2025-04-03,5,0,0.0,5.0,0.0,0.0,-2830.00,0,0,2830.00,3.2666666666666667,14.5666666666666667,2.0000000000000000,0.57142857142857142857,2830.00,0,375,125,0.66666666666666666667,2.0000000000000000
2025-04-02,3,1,1.0,2.0,0.0,1.0,794.00,-130.00,130.00,1506.00,3.3333333333333333,15.1666666666666667,1.5714285714285714,0.42857142857142857143,356.00,1280.00,376,122,0.33333333333333333333,1.00000000000000000000
2025-04-01,3,0,2.0,1.0,0.0,0.0,833.00,0,0,955.00,3.4666666666666667,17.3000000000000000,1.5714285714285714,5.2857142857142857,61.00,894.00,376,119,0.33333333333333333333,0.66666666666666666667
2025-03-31,0,1,0.0,0.0,1.0,0.0,0,205.00,205.00,0,3.6333333333333333,17.4333333333333333,8.8571428571428571,52.4285714285714286,205.00,0,377,119,0.33333333333333333333,0.66666666666666666667
2025-03-28,0,0,,,,,,,0,0,4.1000000000000000,65.5000000000000000,8.8571428571428571,52.8571428571428571,0,0,377,119,0.66666666666666666667,2.6666666666666667
2025-03-27,2,0,0.0,2.0,0.0,0.0,-500.00,0,0,500.00,4.0333333333333333,65.5000000000000000,8.7142857142857143,53.5714285714285714,500.00,0,377,117,0.66666666666666666667,2.0000000000000000
2025-03-26,0,1,0.0,0.0,0.0,1.0,0,-90.00,90.00,0,4.0333333333333333,65.4666666666666667,8.8571428571428571,53.4285714285714286,0,90.00,376,117,11.6666666666666667,3.0000000000000000
2025-03-25,6,1,4.0,2.0,1.0,0.0,659.00,415.00,415.00,1769.00,4.0333333333333333,65.7000000000000000,8.0000000000000000,53.4285714285714286,970.00,1214.00,377,112,121.6666666666666667,18.0000000000000000
2025-03-24,0,0,,,,,,,0,0,4.6333333333333333,66.0333333333333333,8.1428571428571429,54.2857142857142857,0,0,377,112,122.6666666666666667,18.0000000000000000
2025-03-21,3,34,0.0,2.0,4.0,17.0,-80.00,-1727.00,10329.00,1375.00,5.1333333333333333,86.6666666666666667,7.7142857142857143,49.8571428571428571,1296.00,2943.00,425,131,113.0000000000000000,17.3333333333333333
2025-03-20,51,331,20.0,31.0,309.0,5.0,-16096.00,53044.00,68356.00,54676.00,3.5000000000000000,75.7666666666666667,0.57142857142857142857,2.5714285714285714,89201.00,20061.00,103,83,2.6666666666666667,0.66666666666666666667
2025-03-19,0,3,0.0,0.0,1.0,2.0,0,-197.00,327.00,0,3.5333333333333333,75.6666666666666667,0.57142857142857142857,3.0000000000000000,65.00,262.00,104,83,2.0000000000000000,0.66666666666666666667
2025-03-18,1,5,1.0,0.0,3.0,2.0,85.00,-344.00,2728.00,85.00,3.5000000000000000,75.5000000000000000,0.57142857142857142857,3.1428571428571429,1192.00,1621.00,101,82,2.3333333333333333,0.66666666666666666667
2025-03-17,1,0,1.0,0.0,0.0,0.0,310.00,0,0,310.00,3.4666666666666667,75.5333333333333333,0.57142857142857142857,3.8571428571428571,0,310.00,101,81,3.3333333333333333,0.33333333333333333333
2025-03-14,0,1,0.0,0.0,1.0,0.0,0,145.00,145.00,0,3.5333333333333333,75.5000000000000000,0.57142857142857142857,3.8571428571428571,145.00,0,101,81,3.0000000000000000,0.66666666666666666667
2025-03-13,1,6,1.0,0.0,4.0,2.0,1740.00,688.00,1888.00,1740.00,3.5000000000000000,75.3666666666666667,0.71428571428571428571,3.1428571428571429,1288.00,2340.00,107,80,3.0000000000000000,0.33333333333333333333
2025-03-12,0,3,0.0,0.0,2.0,1.0,0,1070.00,1430.00,0,3.7666666666666667,75.2666666666666667,0.71428571428571428571,2.8571428571428571,1250.00,180.00,105,80,4.0000000000000000,0.66666666666666666667
2025-03-11,1,0,1.0,0.0,0.0,0.0,265.00,0,0,265.00,3.8000000000000000,75.2666666666666667,0.57142857142857142857,3.0000000000000000,0,265.00,105,79,5.6666666666666667,0.66666666666666666667
2025-03-10,0,6,0.0,0.0,3.0,3.0,0,192.00,1030.00,0,3.8000000000000000,75.0666666666666667,0.85714285714285714286,2.5714285714285714,611.00,419.00,109,79,4.0000000000000000,0.66666666666666666667
2025-03-07,1,6,1.0,0.0,2.0,4.0,265.00,-241.00,579.00,265.00,3.9000000000000000,74.9666666666666667,1.00000000000000000000,1.7142857142857143,169.00,675.00,109,78,2.3333333333333333,1.00000000000000000000
2025-03-06,1,5,1.0,0.0,3.0,2.0,280.00,86.00,664.00,280.00,3.8666666666666667,74.8000000000000000,1.00000000000000000000,1.5714285714285714,375.00,569.00,105,77,1.00000000000000000000,0.66666666666666666667
2025-03-05,0,1,0.0,0.0,1.0,0.0,0,230.00,230.00,0,4.0333333333333333,74.9000000000000000,2.0000000000000000,3.0000000000000000,230.00,0,104,77,1.00000000000000000000,0.66666666666666666667
2025-03-04,2,1,2.0,0.0,1.0,0.0,2064.00,155.00,155.00,2064.00,4.0333333333333333,74.8666666666666667,3.1428571428571429,3.5714285714285714,155.00,2064.00,103,78,1.6666666666666667,0.66666666666666666667
2025-03-03,0,1,0.0,0.0,0.0,1.0,0,-170.00,170.00,0,4.0666666666666667,74.9000000000000000,3.1428571428571429,4.2857142857142857,0,170.00,102,78,1.3333333333333333,1.3333333333333333
2025-02-28,0,1,0.0,0.0,1.0,0.0,0,215.00,215.00,0,4.2333333333333333,74.8666666666666667,3.8571428571428571,6.8571428571428571,215.00,0,101,78,2.3333333333333333,1.6666666666666667
2025-02-27,2,3,1.0,1.0,0.0,3.0,593.00,-780.00,780.00,913.00,4.1666666666666667,74.9000000000000000,4.5714285714285714,15.5714285714285714,160.00,1533.00,99,78,5.0000000000000000,3.3333333333333333
2025-02-26,2,0,1.0,1.0,0.0,0.0,1576.00,0,0,2012.00,4.1000000000000000,74.9000000000000000,5.0000000000000000,16.2857142857142857,218.00,1794.00,99,77,6.6666666666666667,6.0000000000000000
2025-02-25,1,4,1.0,0.0,0.0,4.0,280.00,-958.00,958.00,280.00,4.1000000000000000,74.8000000000000000,6.8571428571428571,221.7142857142857143,0,1238.00,99,76,7.3333333333333333,5.6666666666666667
2025-02-24,7,11,1.0,6.0,11.0,0.0,-737.00,1760.00,1760.00,967.00,4.0000000000000000,74.4333333333333333,5.8571428571428571,220.1428571428571429,2612.00,115.00,90,71,10.0000000000000000,5.0000000000000000
2025-02-21,10,5,5.0,5.0,1.0,4.0,-3210.00,-618.00,1078.00,6190.00,3.8333333333333333,74.4666666666666667,4.4285714285714286,219.4285714285714286,4930.00,2338.00,697,178,29.6666666666666667,4.0000000000000000
2025-02-20,0,6,0.0,0.0,0.0,3.0,0,-460.00,1060.00,0,3.8333333333333333,74.2666666666666667,5.2857142857142857,219.7142857142857143,0,460.00,695,178,29.3333333333333333,5.6666666666666667
2025-02-19,5,19,3.0,2.0,6.0,12.0,2966.00,-178.00,6122.00,4746.00,3.7000000000000000,73.7000000000000000,7.1428571428571429,218.4285714285714286,3767.00,6911.00,678,176,503.6666666666666667,8.6666666666666667
2025-02-18,7,64,6.0,0.0,15.0,37.0,10964.00,-7676.00,18358.00,11439.00,3.5000000000000000,71.6000000000000000,8.7142857142857143,302.5714285714285714,4051.00,22691.00,630,174,482.3333333333333333,6.3333333333333333
2025-02-14,5,5,1.0,4.0,2.0,3.0,-175.00,-477.00,1187.00,215.00,3.5333333333333333,71.5666666666666667,8.2857142857142857,302.4285714285714286,550.00,852.00,627,173,480.6666666666666667,4.6666666666666667
2025-02-13,14,1442,12.0,2.0,720.0,722.0,1709.00,-360200.00,2062280.00,2329.00,3.0666666666666667,23.5333333333333333,6.4285714285714286,96.4285714285714286,851350.00,1213259.00,625,161,2.6666666666666667,2.0000000000000000
2025-02-12,0,0,,,,,,,0,0,3.2000000000000000,23.5333333333333333,6.4285714285714286,96.4285714285714286,0,0,625,161,6.0000000000000000,8.0000000000000000
2025-02-11,0,0,,,,,,,0,0,3.3000000000000000,23.5333333333333333,6.4285714285714286,96.5714285714285714,0,0,627,161,223.6666666666666667,14.0000000000000000
2025-02-10,6,8,3.0,2.0,5.0,3.0,645.00,1592.00,1604.00,1310.00,3.1000000000000000,23.2666666666666667,5.8571428571428571,95.4285714285714286,1828.00,881.00,623,157,222.3333333333333333,12.6666666666666667
2025-02-07,18,10,10.0,7.0,4.0,4.0,7575.00,1129.00,4539.00,15889.00,2.5000000000000000,23.0000000000000000,3.2857142857142857,94.2857142857142857,2881.00,9327.00,625,146,219.0000000000000000,7.0000000000000000
2025-02-06,18,653,13.0,5.0,649.0,4.0,8644.00,203078.00,205556.00,12880.00,1.9666666666666667,1.2333333333333333,1.8571428571428571,1.00000000000000000000,206435.00,12001.00,114,131,1.3333333333333333,1.00000000000000000000
2025-02-05,2,4,2.0,0.0,2.0,2.0,961.00,-85.00,545.00,961.00,1.9333333333333333,1.1000000000000000,1.8571428571428571,0.42857142857142857143,230.00,1276.00,111,129,0.33333333333333333333,0.33333333333333333333
2025-02-04,1,0,1.0,0.0,0.0,0.0,540.00,0,0,540.00,1.9000000000000000,1.2333333333333333,1.7142857142857143,0.42857142857142857143,0,540.00,111,128,0.33333333333333333333,0.66666666666666666667
2025-02-03,0,0,,,,,,,0,0,1.9000000000000000,1.2333333333333333,2.2857142857142857,0.85714285714285714286,0,0,111,128,1.00000000000000000000,0.66666666666666666667
2025-01-31,0,1,0.0,0.0,1.0,0.0,0,50.00,50.00,0,1.9000000000000000,1.2000000000000000,2.2857142857142857,0.71428571428571428571,50.00,0,110,128,0.66666666666666666667,3.3333333333333333
2025-01-30,2,0,2.0,0.0,0.0,0.0,300.00,0,0,300.00,1.8333333333333333,1.2333333333333333,2.7142857142857143,1.2857142857142857,0,300.00,110,126,0.66666666666666666667,3.3333333333333333
2025-01-29,0,2,0.0,0.0,2.0,0.0,0,1240.00,1240.00,0,1.8333333333333333,1.2000000000000000,3.0000000000000000,1.00000000000000000000,1240.00,0,112,126,0.00000000000000000000,3.3333333333333333
2025-01-28,8,0,1.0,7.0,0.0,0.0,-2100.00,0,0,2110.00,1.5666666666666667,1.2333333333333333,2.0000000000000000,1.2857142857142857,2105.00,5.00,112,128,1.00000000000000000000,2.0000000000000000
2025-01-27,2,0,0.0,2.0,0.0,0.0,-568.00,0,0,568.00,1.5000000000000000,1.2333333333333333,2.4285714285714286,1.2857142857142857,568.00,0,112,126,1.00000000000000000000,1.3333333333333333
2025-01-24,0,0,,,,,,,0,0,1.5000000000000000,1.2333333333333333,2.4285714285714286,1.8571428571428571,0,0,112,126,2.3333333333333333,3.0000000000000000
2025-01-23,4,3,3.0,1.0,2.0,1.0,1309.00,-35.00,1063.00,1781.00,1.3666666666666667,1.1666666666666667,1.8571428571428571,1.4285714285714286,750.00,2094.00,114,128,1.3333333333333333,2.3333333333333333
2025-01-22,0,0,,,,,,,0,0,1.3666666666666667,1.2000000000000000,2.0000000000000000,1.5714285714285714,0,0,114,128,2.0000000000000000,2.6666666666666667
2025-01-21,5,4,5.0,0.0,3.0,1.0,2480.00,1449.00,2139.00,2480.00,1.2333333333333333,1.0666666666666667,1.8571428571428571,1.00000000000000000000,1794.00,2825.00,115,127,0.66666666666666666667,2.6666666666666667
2025-01-17,2,0,2.0,0.0,0.0,0.0,364.00,0,0,364.00,1.1666666666666667,1.1333333333333333,2.2857142857142857,1.8571428571428571,0,364.00,122,133,2.0000000000000000,2.0000000000000000
2025-01-16,1,2,1.0,0.0,0.0,2.0,70.00,-1806.00,1806.00,70.00,1.1333333333333333,1.0666666666666667,2.1428571428571429,1.5714285714285714,0,1876.00,121,132,1.3333333333333333,1.6666666666666667
2025-01-15,5,0,5.0,0.0,0.0,0.0,2180.00,0,0,2180.00,1.1666666666666667,1.0666666666666667,1.5714285714285714,1.8571428571428571,0,2180.00,121,128,1.6666666666666667,0.33333333333333333333
2025-01-14,0,4,0.0,0.0,2.0,2.0,0,-45.00,1089.00,0,1.3666666666666667,0.93333333333333333333,1.7142857142857143,1.4285714285714286,522.00,567.00,120,128,0.33333333333333333333,1.6666666666666667
2025-01-13,0,0,,,,,,,0,0,1.3666666666666667,0.96666666666666666667,2.5714285714285714,2.0000000000000000,0,0,120,128,2.3333333333333333,3.3333333333333333
2025-01-10,1,1,0.0,0.0,0.0,1.0,0,-202.00,202.00,1005.00,1.3333333333333333,0.96666666666666666667,2.4285714285714286,2.0000000000000000,0,202.00,120,128,2.0000000000000000,3.0000000000000000
2025-01-08,4,0,1.0,3.0,0.0,0.0,-467.00,0,0,697.00,1.2000000000000000,0.96666666666666666667,2.4285714285714286,2.0000000000000000,582.00,115.00,120,126,2.6666666666666667,2.0000000000000000
2025-01-07,5,6,0.0,5.0,1.0,3.0,-1086.00,-925.00,2975.00,1086.00,1.0666666666666667,0.83333333333333333333,2.1428571428571429,1.1428571428571429,1261.00,1100.00,115,122,1.00000000000000000000,0.66666666666666666667
2025-01-06,0,0,,,,,,,0,0,1.0666666666666667,0.83333333333333333333,2.1428571428571429,1.1428571428571429,0,0,115,122,2.3333333333333333,2.6666666666666667
2025-01-03,1,2,0.0,1.0,1.0,1.0,-5.00,-300.00,1334.00,5.00,1.3333333333333333,0.76666666666666666667,2.0000000000000000,1.1428571428571429,522.00,817.00,113,123,2.0000000000000000,2.3333333333333333
2025-01-02,1,1,1.0,0.0,1.0,0.0,150.00,165.00,165.00,150.00,1.3000000000000000,0.73333333333333333333,2.1428571428571429,1.00000000000000000000,165.00,150.00,112,122,1.6666666666666667,3.3333333333333333
2024-12-31,6,4,1.0,5.0,3.0,1.0,-2945.00,360.00,1060.00,3055.00,1.2000000000000000,0.76666666666666666667,1.4285714285714286,0.42857142857142857143,3710.00,405.00,109,117,0.33333333333333333333,2.3333333333333333
2024-12-30,0,1,0.0,0.0,1.0,0.0,0,450.00,450.00,0,1.2333333333333333,0.73333333333333333333,1.4285714285714286,0.85714285714285714286,450.00,0,108,117,0.00000000000000000000,2.3333333333333333
2024-12-27,4,0,0.0,4.0,0.0,0.0,-1464.00,0,0,1464.00,1.1333333333333333,0.73333333333333333333,0.85714285714285714286,0.85714285714285714286,1464.00,0,108,113,0.66666666666666666667,1.00000000000000000000
2024-12-26,3,0,0.0,3.0,0.0,0.0,-288.00,0,0,288.00,1.0666666666666667,0.73333333333333333333,0.42857142857142857143,0.85714285714285714286,288.00,0,108,111,0.66666666666666666667,0.66666666666666666667
2024-12-24,0,0,,,,,,,0,0,1.1000000000000000,0.76666666666666666667,0.42857142857142857143,1.00000000000000000000,0,0,108,111,0.66666666666666666667,1.00000000000000000000
2024-12-23,0,2,0.0,0.0,1.0,1.0,0,57.00,443.00,0,1.2000000000000000,0.73333333333333333333,0.42857142857142857143,0.85714285714285714286,250.00,193.00,108,111,1.3333333333333333,1.00000000000000000000
2024-12-20,2,0,0.0,2.0,0.0,0.0,-553.00,0,0,553.00,1.8000000000000000,0.76666666666666666667,0.14285714285714285714,1.00000000000000000000,553.00,0,110,141,1.3333333333333333,0.33333333333333333333
2024-12-19,1,0,0.0,1.0,0.0,0.0,-15.00,0,0,15.00,2.0000000000000000,0.76666666666666666667,0.00000000000000000000,1.00000000000000000000,15.00,0,110,140,1.3333333333333333,0.00000000000000000000
2024-12-18,0,4,0.0,0.0,4.0,0.0,0,1213.00,1213.00,0,2.0000000000000000,0.63333333333333333333,0.00000000000000000000,0.42857142857142857143,1213.00,0,107,140,0.33333333333333333333,0.00000000000000000000
2024-12-17,0,0,,,,,,,0,0,2.0000000000000000,0.63333333333333333333,0.00000000000000000000,0.57142857142857142857,0,0,107,140,0.66666666666666666667,0.00000000000000000000
2024-12-16,0,0,,,,,,,0,0,2.0666666666666667,0.63333333333333333333,0.00000000000000000000,0.71428571428571428571,0,0,108,140,1.00000000000000000000,0.00000000000000000000
2024-12-13,0,1,0.0,0.0,0.0,1.0,0,-165.00,165.00,0,2.0666666666666667,0.60000000000000000000,0.14285714285714285714,0.57142857142857142857,0,165.00,107,140,0.66666666666666666667,0.00000000000000000000
2024-12-12,0,1,0.0,0.0,0.0,1.0,0,-340.00,340.00,0,2.3666666666666667,0.56666666666666666667,0.14285714285714285714,0.71428571428571428571,0,340.00,106,140,0.33333333333333333333,0.00000000000000000000
2024-12-11,0,1,0.0,0.0,0.0,0.0,0,0,350.00,0,2.3666666666666667,0.53333333333333333333,0.14285714285714285714,0.57142857142857142857,0,0,105,140,0.33333333333333333333,0.00000000000000000000
2024-12-10,0,0,,,,,,,0,0,2.4000000000000000,0.56666666666666666667,1.00000000000000000000,0.57142857142857142857,0,0,105,140,0.66666666666666666667,0.00000000000000000000
2024-12-09,0,0,,,,,,,0,0,3.3666666666666667,0.70000000000000000000,1.8571428571428571,0.57142857142857142857,0,0,105,140,0.66666666666666666667,0.33333333333333333333
2024-12-06,0,1,0.0,0.0,0.0,1.0,0,-120.00,120.00,0,4.0000000000000000,0.83333333333333333333,1.8571428571428571,0.57142857142857142857,0,120.00,104,140,1.00000000000000000000,0.33333333333333333333
2024-12-05,0,1,0.0,0.0,0.0,1.0,0,-1010,1010,0,5.0000000000000000,0.80000000000000000000,1.8571428571428571,0.57142857142857142857,0,1010,103,140,0.66666666666666666667,0.33333333333333333333
2024-12-04,1,0,0.0,1.0,0.0,0.0,-490,0,0,490,5.0666666666666667,0.83333333333333333333,1.7142857142857143,0.57142857142857142857,490,0,103,139,0.66666666666666666667,2.0000000000000000
2024-12-03,0,2,0.0,0.0,0.0,2.0,0,-900,900,0,5.1333333333333333,0.80000000000000000000,1.8571428571428571,0.57142857142857142857,0,900,101,139,0.00000000000000000000,4.0000000000000000
2024-12-02,0,0,,,,,,,0,0,5.2666666666666667,0.80000000000000000000,1.8571428571428571,0.57142857142857142857,0,0,101,139,0.33333333333333333333,4.0000000000000000
2024-11-29,6,0,0.0,0.0,0.0,0.0,0,0,0,4320,5.1666666666666667,0.80000000000000000000,2.2857142857142857,0.57142857142857142857,0,0,101,139,0.66666666666666666667,2.0000000000000000
2024-11-27,6,0,6.0,0.0,0.0,0.0,4470,0,0,4470,5.1000000000000000,1.1333333333333333,1.4285714285714286,0.57142857142857142857,0,4470,101,133,0.66666666666666666667,0.00000000000000000000
2024-11-26,0,1,0.0,0.0,0.0,1.0,0,-105,105,0,5.2000000000000000,1.1333333333333333,1.8571428571428571,1.1428571428571429,0,105,100,133,1.00000000000000000000,0.33333333333333333333
2024-11-25,0,1,0.0,0.0,1.0,0.0,0,5,5,0,5.6333333333333333,1.3666666666666667,2.0000000000000000,1.00000000000000000000,5,0,101,133,0.66666666666666666667,0.33333333333333333333
2024-11-22,0,0,,,,,,,0,0,5.8000000000000000,1.3666666666666667,2.1428571428571429,1.00000000000000000000,0,0,101,133,0.66666666666666666667,3.3333333333333333
2024-11-21,1,2,0.0,1.0,1.0,1.0,-125,-435,585,125,5.8333333333333333,1.3000000000000000,2.1428571428571429,0.71428571428571428571,200,510,99,132,0.00000000000000000000,3.0000000000000000
2024-11-20,0,0,,,,,,,0,0,5.8333333333333333,1.3000000000000000,2.2857142857142857,0.85714285714285714286,0,0,99,132,1.6666666666666667,4.0000000000000000
2024-11-19,9,0,0.0,9.0,0.0,0.0,-6885,0,0,6885,5.8666666666666667,1.3000000000000000,1.4285714285714286,1.00000000000000000000,6885,0,99,136,1.6666666666666667,1.3333333333333333
2024-11-18,0,0,,,,,,,0,0,5.8666666666666667,1.3000000000000000,4.2857142857142857,1.1428571428571429,0,0,99,136,1.6666666666666667,1.6666666666666667
2024-11-15,3,5,1.0,2.0,3.0,2.0,-580,1205,1715,1280,5.9333333333333333,1.1333333333333333,4.8571428571428571,0.42857142857142857143,2390,605,130,678,0.00000000000000000000,1.00000000000000000000
2024-11-14,1,0,1.0,0.0,0.0,0.0,90,0,0,90,5.9000000000000000,1.8000000000000000,4.7142857142857143,0.42857142857142857143,0,90,130,677,0.33333333333333333333,1.00000000000000000000
2024-11-13,1,0,1.0,0.0,0.0,0.0,180,0,0,180,5.9000000000000000,1.8000000000000000,4.5714285714285714,0.42857142857142857143,0,180,130,677,0.66666666666666666667,1.6666666666666667
2024-11-12,1,0,0.0,1.0,0.0,0.0,-450,0,0,450,5.8666666666666667,1.8000000000000000,4.7142857142857143,0.42857142857142857143,450,0,130,676,1.00000000000000000000,8.0000000000000000
2024-11-11,1,1,1.0,0.0,0.0,1.0,280,-5,5,280,5.8333333333333333,1.7666666666666667,4.5714285714285714,0.28571428571428571429,0,285,130,675,0.66666666666666666667,10.0000000000000000
2024-11-08,3,1,0.0,3.0,0.0,1.0,-1350,-5,5,1350,5.7333333333333333,1.7333333333333333,5.4285714285714286,0.14285714285714285714,1350,5,131,674,0.33333333333333333333,9.0000000000000000
2024-11-07,20,1,20.0,0.0,0.0,1.0,8000,-350,350,8000,5.0666666666666667,1.7000000000000000,2.5714285714285714,0.00000000000000000000,0,8350,130,654,0.00000000000000000000,2.3333333333333333
2024-11-06,7,0,7.0,0.0,0.0,0.0,4950,0,0,4950,4.8333333333333333,1.7000000000000000,1.7142857142857143,0.14285714285714285714,0,4950,130,659,0.00000000000000000000,0.66666666666666666667
2024-11-05,0,0,,,,,,,0,0,4.8333333333333333,1.7000000000000000,5.8571428571428571,0.71428571428571428571,0,0,130,659,0.00000000000000000000,0.66666666666666666667
2024-11-04,0,0,,,,,,,0,0,4.8333333333333333,1.7000000000000000,8.5714285714285714,1.4285714285714286,0,0,130,659,0.00000000000000000000,3.6666666666666667
2024-11-01,2,0,0.0,2.0,0.0,0.0,-1190,0,0,1190,4.9666666666666667,1.7000000000000000,12.5714285714285714,1.4285714285714286,1190,0,130,657,0.00000000000000000000,3.0000000000000000
2024-10-31,0,0,,,,,,,0,0,5.0333333333333333,1.7000000000000000,13.0000000000000000,1.5714285714285714,0,0,130,657,0.33333333333333333333,3.3333333333333333
2024-10-30,9,0,0.0,9.0,0.0,0.0,-9162,0,0,9162,4.7333333333333333,1.7000000000000000,12.0000000000000000,1.7142857142857143,9162,0,130,650,1.6666666666666667,10.0000000000000000
2024-10-29,0,0,,,,,,,0,0,4.8666666666666667,1.7000000000000000,12.5714285714285714,1.7142857142857143,0,0,130,650,3.3333333333333333,16.3333333333333333
2024-10-28,1,1,1.0,0.0,0.0,1.0,998,-240,240,998,4.8333333333333333,1.6666666666666667,12.8571428571428571,1.5714285714285714,0,1238,129,649,3.0000000000000000,26.0000000000000000
2024-10-25,29,4,21.0,8.0,3.0,1.0,4397,80,160,12873,3.9333333333333333,1.5333333333333333,9.2857142857142857,2.4285714285714286,4358,8675,128,643,2.0000000000000000,17.3333333333333333
2024-10-24,19,5,7.0,12.0,1.0,4.0,2437,-1072,1476,11223,3.3000000000000000,1.4333333333333333,7.0000000000000000,1.8571428571428571,4595,8104,126,638,0.66666666666666666667,11.6666666666666667
2024-10-23,30,0,29.0,1.0,0.0,0.0,9875,0,0,11597,2.3000000000000000,1.4333333333333333,4.5714285714285714,3.0000000000000000,861,10736,126,143,0.66666666666666666667,3.0000000000000000
2024-10-22,3,1,3.0,0.0,1.0,0.0,595,185,185,595,5.2000000000000000,1.4000000000000000,4.8571428571428571,2.8571428571428571,185,595,125,142,0.33333333333333333333,3.0000000000000000
2024-10-21,2,1,1.0,1.0,1.0,0.0,-730,495,495,1230,5.1333333333333333,1.3666666666666667,4.8571428571428571,2.7142857142857143,1475,250,124,143,3.3333333333333333,3.6666666666666667
2024-10-18,4,0,0.0,4.0,0.0,0.0,-13400,0,0,13400,5.0000000000000000,1.3666666666666667,4.2857142857142857,2.7142857142857143,13400,0,126,126,3.6666666666666667,3.3333333333333333
2024-10-17,3,0,3.0,0.0,0.0,0.0,2850,0,0,2850,4.9000000000000000,1.3666666666666667,5.2857142857142857,2.7142857142857143,0,2850,126,129,6.3333333333333333,6.6666666666666667
2024-10-16,4,10,3.0,1.0,7.0,3.0,5780,235,2835,7220,4.7666666666666667,1.1666666666666667,4.7142857142857143,1.2857142857142857,2255,7800,130,126,3.0000000000000000,7.0000000000000000
2024-10-15,3,1,1.0,2.0,0.0,1.0,-1163,-880,880,1437,4.6666666666666667,1.1333333333333333,5.0000000000000000,1.1428571428571429,1300,1017,129,126,2.6666666666666667,6.6666666666666667
2024-10-14,13,8,6.0,3.0,1.0,6.0,21,-2030,3165,8699,4.6000000000000000,0.86666666666666666667,3.1428571428571429,2.8571428571428571,3004,5055,121,115,0.00000000000000000000,2.3333333333333333
2024-10-11,5,0,1.0,4.0,0.0,0.0,-1629,0,0,3829,4.5000000000000000,0.86666666666666666667,2.5714285714285714,2.8571428571428571,2729,1100,121,117,0.00000000000000000000,4.0000000000000000
2024-10-10,2,0,0.0,2.0,0.0,0.0,-3720,0,0,3720,4.4666666666666667,0.86666666666666666667,2.2857142857142857,2.8571428571428571,3720,0,121,119,0.00000000000000000000,3.3333333333333333
2024-10-09,0,0,,,,,,,0,0,4.7333333333333333,0.86666666666666666667,2.2857142857142857,2.8571428571428571,0,0,121,119,0.00000000000000000000,5.0000000000000000
2024-10-08,10,0,3.0,7.0,0.0,0.0,245,0,0,3905,4.5666666666666667,0.86666666666666666667,0.85714285714285714286,2.8571428571428571,1830,2075,121,111,6.6666666666666667,1.6666666666666667
2024-10-07,0,0,,,,,,,0,0,4.6000000000000000,0.86666666666666666667,0.85714285714285714286,2.8571428571428571,0,0,121,111,6.6666666666666667,2.0000000000000000
2024-10-04,5,0,1.0,4.0,0.0,0.0,-2203,0,0,2673,4.4333333333333333,0.93333333333333333333,0.14285714285714285714,2.8571428571428571,2438,235,121,111,6.6666666666666667,0.33333333333333333333
2024-10-03,0,20,0.0,0.0,20.0,0.0,0,700,700,0,4.5000000000000000,0.26666666666666666667,0.14285714285714285714,0.00000000000000000000,700,0,121,111,0.00000000000000000000,0.33333333333333333333
2024-10-02,1,0,0.0,1.0,0.0,0.0,-560,0,0,560,4.4666666666666667,0.46666666666666666667,0.00000000000000000000,0.00000000000000000000,560,0,121,110,0.00000000000000000000,0.00000000000000000000
2024-10-01,0,0,,,,,,,0,0,4.4666666666666667,0.60000000000000000000,0.85714285714285714286,0.00000000000000000000,0,0,121,110,0.00000000000000000000,0.00000000000000000000
2024-09-30,0,0,,,,,,,0,0,4.5000000000000000,0.76666666666666666667,1.1428571428571429,0.00000000000000000000,0,0,121,110,0.00000000000000000000,0.00000000000000000000
2024-09-27,0,0,,,,,,,0,0,4.5666666666666667,0.90000000000000000000,1.1428571428571429,0.00000000000000000000,0,0,121,110,0.00000000000000000000,0.00000000000000000000
