date,call_gamma,put_gamma,call_delta,put_delta,call_charm,put_charm,call_vanna,put_vanna
2023-09-29,98.2518,-148.9126,1705.5737,-2971.6080,0.0000,0.0000,0.0000,0.0000
2023-10-02,94.7342,-160.5626,1684.1638,-3040.1656,0.0000,0.0000,0.0000,0.0000
2023-10-03,97.0914,-151.6773,1723.6443,-3108.7892,0.0000,0.0000,0.0000,0.0000
2023-10-04,92.7356,-149.5995,1567.6275,-3351.7286,0.0000,0.0000,0.0000,0.0000
2023-10-05,94.3014,-150.5276,1682.9126,-3193.9630,0.0000,0.0000,0.0000,0.0000
2023-10-06,87.1728,-154.1783,1644.1666,-3220.3462,0.0000,0.0000,0.0000,0.0000
2023-10-09,99.8010,-137.4427,1801.9120,-2896.5442,0.0000,0.0000,0.0000,0.0000
2023-10-10,92.0670,-145.3765,1840.6340,-2871.4315,0.0000,0.0000,0.0000,0.0000
2023-10-11,136.1345,-151.3524,2246.9544,-2967.5625,0.0000,0.0000,0.0000,0.0000
2023-10-12,143.3833,-154.2492,2341.0133,-2844.3785,0.0000,0.0000,0.0000,0.0000
2023-10-13,145.0007,-154.2736,2081.9564,-3074.7259,0.0000,0.0000,0.0000,0.0000
2023-10-16,142.9278,-154.2801,2215.0903,-3018.0941,0.0000,0.0000,0.0000,0.0000
2023-10-17,157.0957,-150.7782,2231.1393,-2908.3196,0.0000,0.0000,0.0000,0.0000
2023-10-18,148.8216,-171.8045,2397.5754,-3177.5298,0.0000,0.0000,0.0000,0.0000
2023-10-19,154.7103,-186.3160,2247.5627,-3115.7370,0.0000,0.0000,0.0000,0.0000
2023-10-20,166.9870,-187.7945,2219.5094,-3282.4528,0.0000,0.0000,0.0000,0.0000
2023-10-23,102.8809,-192.6430,1436.8896,-3921.2136,-661.7691,-390.1035,2677.5370,184.7134
2023-10-24,112.1654,-200.8729,1433.4180,-3671.2361,-639.4518,-350.8253,2303.6225,-193.1376
2023-10-25,179.3852,-192.5470,2152.2702,-3514.9710,0.0000,0.0000,0.0000,0.0000
2023-10-26,156.5328,-231.4984,1788.9770,-4052.4085,0.0000,0.0000,0.0000,0.0000
2023-10-27,180.8365,-224.5059,1902.9380,-3377.5668,0.0000,0.0000,0.0000,0.0000
2023-10-30,169.4933,-254.0621,1760.8913,-4189.4753,0.0000,0.0000,0.0000,0.0000
2023-10-31,159.8547,-252.0111,1569.5606,-3856.8247,0.0000,0.0000,0.0000,0.0000
2023-11-01,168.2793,-274.5249,1502.6572,-3381.3365,0.0000,0.0000,0.0000,0.0000
2023-11-02,168.2515,-249.1829,1572.1614,-3292.5549,0.0000,0.0000,0.0000,0.0000
2023-11-03,171.2166,-247.6402,1665.1773,-3077.5808,0.0000,0.0000,0.0000,0.0000
2023-11-06,215.1223,-252.8051,1935.1146,-2617.5556,-1705.8456,-99.8654,6571.1547,-3171.4098
2023-11-07,228.1037,-265.0890,1984.4465,-2703.2656,-2055.0788,-44.4488,7041.9052,-2991.3405
2023-11-08,203.1820,-290.1912,1838.5816,-2818.5091,-2251.3142,139.3610,7439.6467,-2898.0484
2023-11-09,216.6436,-274.3770,1909.3377,-2672.8702,-2331.6985,254.0255,7690.9219,-3261.8441
2023-11-10,220.1490,-297.5943,1999.6654,-2788.1168,-2583.6371,712.8775,7312.0391,-3895.2504
2023-11-13,225.2488,-254.3300,1893.9966,-2709.7100,0.0000,0.0000,0.0000,0.0000
2023-11-14,214.0345,-309.0574,1943.8625,-2936.9711,-3963.0005,1788.8396,7525.6630,-3035.2148
2023-11-15,377.3799,-222.8904,2697.5393,-2443.1047,-3202.1962,3209.5104,6126.1090,-3525.7647
2023-11-16,362.5570,-207.3287,2575.1789,-2270.2938,0.0000,0.0000,0.0000,0.0000
2023-11-17,343.7056,-231.5293,2496.3491,-2392.1317,-6536.6523,11083.7651,7014.0064,-3346.9378
2023-11-20,64.8554,-129.5123,995.4320,-2050.8237,0.0000,0.0000,0.0000,0.0000
2023-11-21,38.5468,-137.4375,665.2001,-2075.3229,-1458.0999,-189.2052,6897.2031,-2137.5431
2023-11-22,34.4004,-133.2963,671.6964,-2012.0322,-1547.9256,-180.0326,8077.2407,-2265.9211
2023-11-24,49.7030,-127.4161,763.5591,-1921.4560,-1452.4594,-161.1453,5127.3468,-2420.4473
2023-11-27,44.5619,-114.7421,719.5696,-1109.8017,-1654.1959,-97.3743,5986.7646,-2764.3020
2023-11-28,44.3865,-121.9955,673.3902,-1048.3888,0.0000,0.0000,0.0000,0.0000
2023-11-29,42.9839,-138.6440,628.6038,-1207.4813,-1996.2335,-118.0128,5585.0928,-2555.9831
2023-11-30,44.1374,-148.2168,597.8080,-1173.8746,0.0000,0.0000,0.0000,0.0000
2023-12-01,40.6786,-122.3978,660.8486,-1022.2907,-2229.1310,-80.9146,6064.2526,-2741.8832
2023-12-04,66.7990,-119.8197,931.5988,-934.0728,-2332.8789,-56.5808,5066.5459,-2873.0178
2023-12-05,223.5368,-114.9115,1700.5388,-882.3700,-3240.6524,-32.2082,5730.8939,-2719.8508
2023-12-06,222.1565,-141.0609,1294.4639,-1109.7114,0.0000,0.0000,0.0000,0.0000
2023-12-07,198.5698,-144.9121,1327.8739,-1152.4657,-6460.0645,-60.8254,9976.8765,-2528.8103
2023-12-08,206.1602,-140.2596,1191.2649,-1095.6547,-7067.4384,-16.0837,10706.7744,-2650.5912
2023-12-11,260.3951,-128.2008,1456.4308,-1054.9267,0.0000,0.0000,0.0000,0.0000
2023-12-12,220.3947,-128.4703,1535.1693,-918.9620,0.0000,0.0000,0.0000,0.0000
2023-12-13,254.3918,-134.1664,1383.2012,-956.1639,0.0000,0.0000,0.0000,0.0000
2023-12-14,269.6892,-113.2548,1709.3164,-777.5162,0.0000,0.0000,0.0000,0.0000
2023-12-15,244.9487,-140.5897,1467.5311,-1012.0616,0.0000,0.0000,0.0000,0.0000
2023-12-18,68.7912,-111.7301,774.1241,-1044.2259,,,,
2023-12-19,216.5126,-104.4164,1673.2448,-894.5976,,,,
2023-12-20,192.3648,-115.3656,1400.8881,-1025.5706,,,,
2023-12-21,170.9957,-117.0959,1411.6870,-1061.5057,-720.1706,-115.1703,2633.3906,-1938.2434
2023-12-22,183.3718,-120.4892,1384.5803,-1029.0353,,,,
2023-12-26,185.0259,-118.3103,1428.2437,-1082.4781,-805.3519,-126.2560,2998.8693,-1608.2106
2023-12-27,210.8586,-121.0130,1379.1444,-1148.4118,,,,
2023-12-28,237.4698,-120.2537,1561.7015,-1149.3968,,,,
2023-12-29,243.0107,-126.7556,1800.8972,-1156.9845,,,,
2024-01-02,192.6351,-216.2481,1480.3833,-2203.5680,,,,
2024-01-03,192.9663,-238.3781,1445.2520,-2590.9268,-1500.4089,-252.3084,3951.3980,-2613.6623
2024-01-04,206.2978,-254.0161,1748.0685,-2325.4288,-1414.6033,-239.2663,3297.1454,-3229.5032
2024-01-05,187.5592,-264.3670,1394.0305,-2476.0234,,,,
2024-01-08,188.4978,-269.7677,1435.4651,-2529.3862,,,,
2024-01-09,189.4117,-301.6248,1360.6898,-2656.1429,-2075.6868,-289.2677,4337.8398,-3480.8688
2024-01-10,216.5446,-326.4734,1807.8549,-2696.1274,-2317.1904,-293.0565,4612.8492,-3942.0513
2024-01-11,298.7845,-348.5038,2259.0149,-2783.1651,,,,
2024-01-12,348.7830,-331.4705,3119.6153,-2386.8669,-2364.8785,-179.5573,2079.6597,-4281.6947
2024-01-16,365.5890,-358.9756,2853.5825,-2355.6798,,,,
2024-01-17,356.6914,-327.3029,2993.3450,-2370.0380,,,,
2024-01-18,336.9210,-333.3714,3257.7649,-2331.7181,,,,
2024-01-19,617.4476,-250.5834,4851.5990,-1729.2923,-10783.9414,1361.9818,701.7176,-3966.2948
2024-01-22,246.3058,-175.7729,3899.3129,-1514.9378,,,,
2024-01-23,253.2977,-161.8856,4048.4420,-1214.8420,,,,
2024-01-24,247.0119,-147.2146,4190.9959,-1102.4493,,,,
2024-01-25,268.2217,-167.4815,3974.8650,-1326.2498,-628.0406,31.8397,-384.1536,-3164.0734
2024-01-26,241.7044,-154.9510,4098.7673,-1137.6280,,,,
2024-01-29,238.0747,-160.1099,4185.7689,-1275.1179,,,,
2024-01-30,256.9340,-154.3853,4350.0260,-1180.9490,-2366.3739,188.6149,11876.1830,-3151.4642
2024-01-31,272.9691,-159.5981,4283.0507,-1183.8724,,,,
2024-02-01,274.1906,-192.8752,3711.9151,-1392.2583,-2609.8389,185.8204,12354.1697,-3158.3887
2024-02-02,322.2626,-190.5477,4364.6466,-1423.2421,-2395.0876,216.6411,6041.6119,-2712.1468
2024-02-05,332.7295,-192.2425,4232.5300,-1409.8503,,,,
2024-02-06,329.4141,-173.5498,4399.3596,-1173.6309,-2512.3537,501.3709,5456.3440,-2977.0936
2024-02-07,307.2161,-172.7109,4585.0507,-1154.7404,-2618.1114,545.2031,5456.9509,-3158.8757
2024-02-08,350.7351,-159.4535,4854.9485,-1062.7188,-2994.0866,724.0455,6683.5216,-3057.5572
2024-02-09,2247.4385,-270.5534,18561.8304,-1778.0846,,,,
2024-02-12,1932.2150,-92.8491,42359.8210,-589.2216,,,,
2024-02-13,2202.3402,-94.1117,40625.5690,-632.6402,,,,
2024-02-14,2511.2231,-233.4644,36718.3727,-1615.5271,,,,
2024-02-15,2250.4702,-184.1323,39250.7120,-1271.0648,,,,
2024-02-16,2681.4293,-225.0576,34853.6386,-1606.3138,-59400.8017,17845.4255,16843.0809,-4343.5657
2024-02-20,2048.8540,-294.1826,36509.0682,-2252.6396,,,,
2024-02-21,1619.1542,-1672.4378,39236.6374,-18882.1352,,,,
2024-02-22,1720.4762,-1580.1765,41154.8835,-18508.1542,,,,
2024-02-23,1344.4358,-1559.6303,40290.0787,-16274.5973,,,,
2024-02-26,1356.7251,-1478.7141,40238.2931,-16304.4869,-11844.2097,-546.6131,34040.5304,-31957.4606
2024-02-27,1361.2020,-1461.4493,41484.5555,-15590.3032,-12714.3246,-162.8498,27696.6941,-31406.9117
2024-02-28,1466.6964,-3162.6382,39953.9500,-31822.5633,-13673.6867,-1597.4182,29473.9729,-49695.5819
2024-02-29,1589.9519,-2992.2309,41405.2677,-32490.9400,-13773.6138,-1205.4812,26258.3678,-42307.8780
2024-03-01,1597.3229,-3381.3986,41316.7214,-32978.2921,-14354.8362,-1518.0451,25935.8246,-54825.1076
2024-03-04,1645.2434,-3091.2240,41958.6080,-32577.4130,-13125.8496,-879.1674,29763.4562,-43428.1342
2024-03-05,1907.2986,-2669.8117,50269.7437,-28657.9759,,,,
2024-03-06,1937.5154,-2750.8041,52225.6150,-26829.0111,,,,
2024-03-07,1809.4149,-2602.0970,53171.0464,-24838.0285,-18750.5024,-1375.3203,22533.3131,-40279.4767
2024-03-08,1626.1182,-2403.2962,55871.3675,-22000.2124,-18898.8377,-1062.4860,16609.8348,-40926.1543
2024-03-11,1815.3305,-2510.2256,54051.1903,-25909.7193,-21237.7399,-1510.9935,16545.6570,-31429.3869
2024-03-12,1880.5358,-3134.4768,53929.7182,-24725.2798,,,,
2024-03-13,1963.3035,-3392.7242,55702.1629,-25093.5289,,,,
2024-03-14,2272.9991,-4012.2502,53125.7861,-28800.0224,,,,
2024-03-15,2367.1380,-4028.0784,54362.8736,-29763.4978,,,,
2024-03-18,96.1197,-3695.3600,2990.9660,-29530.4590,,,,
2024-03-19,100.0180,-4166.6964,2904.4767,-36338.6879,,,,
2024-03-20,108.0996,-4443.7693,2926.9430,-35482.4630,,,,
2024-03-21,112.1141,-4146.2191,2981.6358,-33348.8004,,,,
2024-03-22,105.5090,-3108.8029,3084.1985,-29562.4502,,,,
2024-03-25,189.4092,-3562.4168,4364.4562,-29221.4787,,,,
2024-03-26,176.8569,-2621.2438,4682.5137,-24801.1428,,,,
2024-03-27,183.9410,-3119.1431,4781.3938,-22166.8353,,,,
2024-03-28,176.9118,-2785.7112,5017.6801,-16033.7461,,,,
2024-04-01,181.2997,-3145.0072,4830.5907,-18154.5451,,,,
2024-04-02,191.8466,-3569.4072,4593.0220,-24391.1827,,,,
2024-04-03,208.1740,-4255.8583,4282.2130,-30449.0375,,,,
2024-04-04,223.3627,-3982.6789,4466.1900,-29599.7044,,,,
2024-04-05,206.7728,-3073.1134,4543.3473,-27542.2403,,,,
2024-04-08,207.2562,-3379.7230,4511.1730,-27344.0373,,,,
2024-04-09,218.6521,-4508.0438,4186.1461,-33161.9556,,,,
2024-04-10,225.4832,-3429.9509,4296.6732,-31822.6063,,,,
2024-04-11,233.2611,-5437.6423,4047.4358,-36297.1356,,,,
2024-04-12,242.7547,-5088.0032,4046.0453,-37384.0778,,,,
2024-04-15,245.9624,-3791.7210,3658.7530,-43452.3739,,,,
2024-04-16,243.7818,-3906.0257,3903.4721,-39578.7759,,,,
2024-04-17,230.8311,-4762.4847,4033.9324,-39725.0414,,,,
2024-04-18,259.0130,-4141.1280,3844.6338,-41343.3497,,,,
2024-04-19,265.1680,-4552.5553,4047.9017,-36801.5450,,,,
2024-04-22,242.3373,-1624.9274,4022.0467,-18707.3118,,,,
2024-04-23,246.9462,-1868.3717,4204.8919,-17108.2663,,,,
2024-04-24,256.0757,-2131.4211,4058.6397,-18848.6892,,,,
2024-04-25,235.5045,-1898.7956,4088.7128,-18339.6952,,,,
2024-04-26,234.4650,-2149.2808,4209.9349,-17978.8004,,,,
2024-04-29,220.2364,-1336.9922,5391.2783,-11106.6206,-334.6147,-1249.7087,-351.1394,-7450.9397
2024-04-30,246.0238,-1109.2771,6027.1565,-10522.8709,,,,
2024-05-01,252.2484,-1675.1342,5608.5115,-9955.0482,,,,
2024-05-02,252.0489,-1492.3292,5854.2754,-9337.6653,,,,
2024-05-03,256.2993,-1213.7414,5927.4085,-10470.3613,,,,
2024-05-06,238.9786,-1132.8358,6201.8106,-9586.2875,,,,
2024-05-07,210.0066,-900.6253,6479.7378,-8586.1959,,,,
2024-05-08,189.3804,-810.2453,6808.4122,-3827.7886,,,,
2024-05-09,204.4720,-695.1044,6953.1217,-3446.7833,,,,
2024-05-10,239.6521,-974.7605,7336.1554,-5947.5018,,,,
2024-05-13,244.3959,-1050.6475,7279.8118,-6922.0865,,,,
2024-05-14,260.8488,-1109.3318,6979.4970,-7568.3462,540.3349,7421.8205,-743.4866,-9473.8534
2024-05-15,112.0211,-198.0442,2580.9911,-1342.2901,,,,
2024-05-16,265.5987,-1262.4968,6925.5236,-6801.4574,,,,
2024-05-17,269.1250,-1069.7568,7132.4917,-9804.5191,4756.7121,16572.0262,-553.8263,-5542.3849
2024-05-20,167.3961,-131.2468,3980.7993,-1465.8807,-392.3873,-156.9257,-199.7726,-4312.1546
2024-05-21,175.8448,-146.8115,4206.6857,-1385.4826,-410.7325,-159.9162,112.4180,-5607.7080
2024-05-22,194.6294,-160.0298,4585.9112,-1636.3583,-432.9080,-178.6475,-55.7423,-4821.2985
2024-05-23,196.6580,-156.0248,4602.0581,-1614.0024,-443.1392,-172.8275,210.3094,-5188.9580
2024-05-24,196.3970,-162.0839,4446.4799,-1691.9284,-449.5528,-182.2085,336.7558,-5168.5856
2024-05-28,198.5766,-164.8556,4473.2604,-1679.0836,-449.5297,-180.8786,133.8179,-5739.0406
2024-05-29,200.6321,-182.5338,4335.1484,-1864.3805,-484.6427,-204.5527,592.2589,-4944.0052
2024-05-30,185.7109,-201.5241,3444.4704,-2157.5526,-505.5262,-238.0645,1162.3256,-5125.0118
2024-05-31,193.1912,-182.5694,3613.7774,-1973.4476,-495.9612,-213.4785,1105.2693,-4904.8327
2024-06-03,192.0711,-170.8878,3825.1008,-1735.7426,-476.0089,-196.2730,749.0639,-4589.4468
2024-06-04,190.3911,-163.8670,3866.9220,-1707.8011,-478.5452,-186.0760,686.4374,-4823.6597
2024-06-05,193.8946,-157.2678,3926.3993,-1597.3566,-482.2277,-174.0963,851.6405,-4729.1411
2024-06-06,206.7664,-160.2404,3940.3139,-1630.7453,-503.2055,-182.9182,531.3642,-4442.3325
2024-06-07,218.6620,-203.4790,3524.6608,-1934.3069,-645.0826,-233.9598,1415.4871,-5626.9518
2024-06-10,217.9653,-212.7066,3586.8633,-2024.1091,-672.5705,-248.3299,1111.9261,-4736.1700
2024-06-11,229.8185,-210.1390,3566.8675,-2014.5898,-748.3673,-259.5140,1665.1246,-4550.3930
2024-06-12,226.4680,-196.6457,3568.9631,-2045.2090,-764.2349,-251.0668,1703.4926,-4056.3369
2024-06-13,215.0158,-204.0937,3818.0227,-1968.9274,-684.8948,-241.5890,1016.1597,-4583.9495
2024-06-14,233.4355,-188.0378,4098.0594,-1924.8438,-789.3638,-248.2623,1830.7419,-4222.8478
2024-06-17,217.6045,-196.1722,3815.7321,-2187.5412,-935.9202,-295.6379,1747.1288,-4197.4574
2024-06-18,233.9847,-198.3862,4100.0418,-1906.6777,-1096.0065,-266.9756,1469.7746,-4025.9200
2024-06-20,243.1436,-180.2323,4366.9467,-1764.1540,-1131.1122,-251.6065,652.6710,-4349.7972
2024-06-21,252.8361,-197.1093,4245.9388,-2005.5792,-3152.3364,-480.7009,1446.1533,-3714.1407
2024-06-24,154.7968,-157.6983,3871.1982,-1615.2868,-407.9916,-165.1504,279.1947,-4139.5427
2024-06-25,150.4939,-163.9845,3790.4442,-1681.9154,,,,
2024-06-26,154.0361,-195.4441,3608.8087,-2010.3189,-471.9661,-220.5854,1599.0370,-4028.5552
2024-06-27,153.9589,-209.2812,3547.7646,-2241.3766,-491.1948,-257.3972,1283.1975,-4271.1405
2024-06-28,154.9284,-205.2619,3475.0653,-2271.4364,-504.0079,-257.0518,1766.7823,-3738.8241
2024-07-01,154.8054,-224.8965,3191.0413,-2868.7868,-545.6124,-345.3348,2010.7080,-3983.5362
2024-07-02,161.1476,-214.5022,3293.5686,-3198.7181,-596.8870,-385.0571,1933.2489,-3254.1078
2024-07-03,180.5352,-220.7623,3526.8940,-2941.6379,-637.4892,-360.8886,1821.9545,-3422.6585
2024-07-05,169.5878,-227.5131,3577.8811,-2742.4116,,,,
2024-07-08,184.5296,-252.8190,3525.5077,-2825.3502,,,,
2024-07-09,173.6706,-247.2730,3603.3671,-2701.5329,-646.9461,-360.1632,1716.3859,-3786.7452
2024-07-10,180.1996,-276.3648,3392.7373,-3088.2840,-758.8581,-460.5443,2090.1279,-4225.1125
2024-07-11,174.9048,-243.1404,3554.1902,-2841.2612,-711.7723,-407.4146,1908.9875,-3306.8660
2024-07-12,170.6929,-288.8803,3825.3735,-2675.4779,-686.2834,-518.5172,1277.6876,-3981.2603
2024-07-15,174.1479,-205.9644,3809.1682,-2187.2706,-681.7708,-236.5430,1649.6652,-3519.8696
2024-07-16,172.4931,-240.0363,3920.2797,-2576.1913,-798.2385,-387.1227,1105.6342,-3395.6219
2024-07-17,183.3139,-235.0886,4078.7753,-2277.9029,-773.2577,-249.3550,1122.7846,-3433.5555
2024-07-18,176.7006,-223.5019,3967.9900,-2215.4963,,,,
2024-07-19,168.4506,-197.7510,4209.5175,-2005.9062,-956.3417,-131.5336,1069.9338,-3178.8368
2024-07-22,208.0020,-139.0170,5068.6437,-1580.8526,-641.0651,-82.7281,-173.3265,-3114.6075
2024-07-23,214.9413,-128.1485,5191.2754,-1456.2817,-663.7290,-54.7000,-469.0349,-2965.5862
2024-07-24,216.1531,-150.8103,4945.6919,-1493.3192,-720.3710,-55.4565,4.3457,-3855.7798
2024-07-25,218.9101,-164.7272,4549.6548,-2470.7320,,,,
2024-07-26,228.3135,-218.3255,4535.2323,-2876.5120,-940.8526,-247.4035,1939.1189,-3333.2132
2024-07-29,266.9946,-183.0427,5664.1540,-1755.3677,-766.7063,-47.9419,-964.0857,-5000.6733
2024-07-30,267.0997,-173.4659,5728.4040,-1817.5180,-869.9126,-11.6965,-353.2834,-4701.7155
2024-07-31,264.7438,-280.8655,5588.8579,-3389.5458,-870.6749,-232.8026,-103.7972,-5705.9504
2024-08-01,253.7096,-274.7639,5853.4146,-3134.1120,,,,
2024-08-02,268.5641,-287.3722,5742.1393,-2924.7384,-958.7800,-94.3280,391.5907,-6440.1263
2024-08-05,318.7026,-261.1825,6169.1814,-3436.4546,-928.5880,-147.5769,32.6551,-4329.0094
2024-08-06,270.4964,-301.2873,4958.8110,-4852.3064,,,,
2024-08-07,272.2239,-265.6120,6172.6441,-3722.8238,,,,
2024-08-08,283.5711,-322.7778,6152.2250,-4887.0574,,,,
2024-08-09,313.6227,-331.8369,6632.0781,-4320.0786,,,,
2024-08-12,285.6293,-411.8859,5964.2966,-5379.1947,,,,
2024-08-13,336.1375,-418.8145,5710.5459,-5429.6261,,,,
2024-08-14,287.5758,-377.6188,6248.1594,-5136.4873,,,,
2024-08-15,284.6110,-379.4457,5961.5616,-5283.7799,,,,
2024-08-16,345.7966,-412.3453,6836.7425,-4299.6001,,,,
2024-08-19,191.7181,-176.4990,2918.5804,-2654.2504,,,,
2024-08-20,191.3399,-192.1153,2913.7309,-2779.6128,,,,
2024-08-21,197.2461,-200.9795,3046.7598,-2659.9132,,,,
2024-08-22,204.4035,-190.3708,3215.8797,-2171.9845,,,,
2024-08-23,202.5697,-191.1940,3218.9570,-2447.4319,,,,
2024-08-26,207.9922,-165.5990,3378.8162,-2113.8338,,,,
2024-08-27,196.5989,-173.1506,3367.3570,-2272.2507,,,,
2024-08-28,215.3491,-163.8706,3466.1454,-2268.9419,,,,
2024-08-29,234.8552,-143.6695,3874.2763,-1762.3750,,,,
2024-08-30,225.9307,-149.1113,3564.3924,-1942.1828,,,,
2024-09-03,227.7663,-156.4173,3492.2144,-1965.4518,-508.4017,-133.2045,-1232.7645,-6221.9671
2024-09-04,209.6147,-184.6399,3322.5629,-2363.4295,,,,
2024-09-05,228.1765,-152.6985,3451.6161,-2051.0868,-533.0615,-168.6557,-972.1162,-5508.2904
2024-09-06,221.3869,-165.6877,3424.6950,-2379.2960,-533.9843,-191.9308,-261.5547,-4375.4676
2024-09-09,225.0455,-147.3891,3635.9486,-1971.4110,,,,
2024-09-10,226.2347,-151.6622,3672.5711,-1980.9239,-509.5083,-147.2285,-242.8260,-5738.5917
2024-09-11,274.0559,-180.8049,3883.5586,-2485.9845,-925.2790,-191.5591,663.1228,-4737.0028
2024-09-12,276.8292,-169.7891,3953.6095,-2168.2604,-964.5816,-168.9700,1174.3028,-5734.2906
2024-09-13,303.2201,-152.8332,4194.0561,-2034.9009,-895.1861,-121.6462,133.0149,-5160.6482
2024-09-16,327.6257,-144.7111,4577.5778,-1911.7878,,,,
2024-09-17,371.5847,-137.0073,4954.4765,-1775.5059,-538.0456,593.8107,-1937.6276,-4303.4524
2024-09-18,316.5610,-134.9515,4609.3958,-1838.7273,-696.3100,425.7811,-397.3507,-4696.6383
2024-09-19,346.8732,-111.8808,5519.7843,-1833.2099,268.4776,3136.2621,-1926.3630,-2888.2351
2024-09-20,318.6072,-119.1924,5444.6110,-1609.4773,,,,
2024-09-23,232.8263,-97.7743,4063.6067,-1493.9441,,,,
2024-09-24,216.1309,-95.7267,4230.8263,-1357.1228,-498.5802,-133.9933,-364.6915,-5073.4673
2024-09-25,226.6605,-76.9592,4282.0136,-909.3370,,,,
2024-09-26,236.8245,-89.9537,4388.9991,-1205.2340,,,,
2024-09-27,230.2281,-81.9306,4552.2573,-1113.5204,-12.2702,-41.3635,-38.1493,-4010.4769
2024-09-30,219.1441,-74.2801,4752.6287,-979.9524,-491.5259,-44.8497,-483.8093,-6068.6627
2024-10-01,245.3616,-71.3229,4825.3170,-946.9879,,,,
2024-10-02,246.6283,-78.1011,4812.0258,-1130.3821,,,,
2024-10-03,237.6242,-92.7454,4367.1054,-1400.1625,,,,
2024-10-04,226.7199,-77.4218,4964.5383,-1130.9629,,,,
2024-10-07,225.0547,-57.7420,4575.0634,-587.0987,-533.6149,14.6621,-511.9776,-9284.9996
2024-10-08,232.0965,-81.6427,4627.2249,-1152.3423,,,,
2024-10-09,246.6437,-81.6544,4891.1741,-1154.3523,,,,
2024-10-10,257.6931,-74.8707,4983.0418,-977.7548,-540.0990,-43.2928,-1077.8939,-5557.3118
2024-10-11,253.5364,-83.3348,5120.2880,-1476.1330,-553.6437,-56.4495,-1196.2025,-2034.7326
2024-10-14,243.7569,-57.0640,5827.4495,-752.5949,-373.7913,113.2030,-1920.3678,-4696.1447
2024-10-15,259.1301,-94.8074,7017.7090,-1102.9716,-264.1263,-278.8837,-2473.4247,-5460.7876
2024-10-16,266.1340,-88.1317,7413.1494,-978.5654,-456.7366,69.5425,-2096.1834,-5150.9263
2024-10-17,258.4756,-75.3121,6934.1763,-1144.2342,,,,
2024-10-18,244.4600,-51.0869,7666.8856,-582.0571,,,,
2024-10-21,277.9502,-58.8797,8881.6902,-821.9710,,,,
2024-10-22,272.8616,-78.4746,7875.6865,-1044.3117,-610.0821,-72.4256,-1674.8790,-4040.3666
2024-10-23,282.9431,-76.1460,8407.7777,-945.3704,,,,
2024-10-24,2138.4473,-67.6934,29836.0901,-943.1639,-5263.5125,-98.7494,2247.7168,-4439.0790
2024-10-25,2316.1347,-71.7745,28245.1804,-763.5692,-5919.1706,-6.9067,2774.1446,-6537.3980
2024-10-28,3034.7583,-50.2616,31045.0377,-499.4124,-6081.7536,174.5439,-5439.3299,-7071.8119
2024-10-29,3188.5274,-67.7434,32367.8854,-682.0553,-6099.4886,185.6701,-6884.4502,-5828.8731
2024-10-30,2325.1431,-63.6816,31421.4686,-643.3399,,,,
2024-10-31,2412.4788,-62.6067,33413.1809,-670.5561,-5817.6523,281.3200,-445.8199,-5857.9976
2024-11-01,2563.4595,-70.0116,29342.0626,-674.7292,-7338.8379,262.8801,3161.3449,-7193.7785
2024-11-04,3206.7568,-68.0018,36180.4318,-836.2166,-7134.7974,398.8481,-2755.5675,-4069.1987
2024-11-05,2684.2806,-66.8692,29694.8384,-587.1391,,,,
2024-11-06,6204.5175,-52.7020,37022.1610,-522.4108,914.6437,416.5882,-64505.6915,-5692.7113
2024-11-07,3561.2009,-51.2185,50467.4773,-536.7291,-443.6073,597.4533,-38785.2491,-4819.8155
2024-11-08,2865.5656,-50.8894,54418.6744,-598.7606,3509.8611,870.8343,-36346.8438,-4421.3923
2024-11-11,2392.5535,-40.7398,54288.0975,-439.6643,4297.1054,893.3923,-27195.0551,-5318.9789
2024-11-12,2122.5452,-49.5167,56943.5901,-739.1402,,,,
2024-11-13,2507.1095,-27.3201,54175.7631,-261.1057,11459.3655,2376.3780,-11139.8308,-7533.0708
2024-11-14,2547.7579,-41.6370,55244.8975,-434.5390,336.7265,170.6378,-123.6299,-131.0267
2024-11-15,3561.0584,-40.3335,54320.1479,-372.5995,93643.8524,26786.9847,-7091.0810,-6364.4986
2024-11-18,268.8447,-44.7012,7030.2897,-749.6218,,,,
2024-11-19,275.7365,-44.4253,7041.7647,-746.3653,-649.9745,-89.4003,-2619.8577,-5850.3871
2024-11-20,281.7459,-63.9679,6985.6647,-1089.8136,,,,
2024-11-21,253.6875,-45.1692,7130.6478,-709.3410,-602.8423,-84.3470,-1645.9388,-5507.1025
2024-11-22,282.2216,-49.7826,7682.3755,-635.8599,-598.7587,-66.8562,-3356.9832,-6038.9859
2024-11-25,276.6538,-55.6521,8061.4281,-581.5093,-573.6160,-55.2419,-2554.8743,-6151.6742
2024-11-26,290.6798,-43.4272,8212.2227,-529.9154,-576.6476,-32.9626,-3197.7059,-5632.5174
2024-11-27,283.9669,-37.4433,7954.2589,-484.3460,-629.1335,-17.9494,-2535.3841,-8462.2170
2024-11-29,300.1460,-41.8122,8625.4039,-527.6325,-612.2681,-23.0427,-3334.5790,-5768.2843
2024-12-02,317.7219,-44.9609,8925.5462,-575.0341,-662.7145,-42.9538,-4248.5828,-4225.1006
2024-12-03,313.1610,-39.1422,8731.9293,-458.4622,-645.4133,4.2396,-3317.3210,-7072.2255
2024-12-04,307.7562,-51.8208,8490.0710,-647.9224,,,,
2024-12-05,314.1246,-50.9806,8573.1912,-649.0712,,,,
2024-12-06,313.0641,-50.8614,8501.2695,-684.8338,,,,
2024-12-09,318.7620,-71.4844,8556.0520,-973.5673,-804.0667,-123.9321,-3465.0341,-3377.1026
2024-12-10,314.7154,-54.9147,8347.4154,-774.7245,,,,
2024-12-11,326.1241,-62.5350,8785.5481,-842.6922,,,,
2024-12-12,343.5135,-59.8413,8703.4322,-744.1451,-899.3614,-35.0698,-3740.4599,-5817.5111
2024-12-13,351.5981,-58.3075,7723.1857,-777.9700,,,,
2024-12-16,313.8632,-70.3892,8201.2619,-980.8884,-1486.8120,-147.4800,-2803.8102,-5539.7125
2024-12-17,308.9461,-70.9878,7113.4782,-1177.2607,-2324.2618,-214.3760,-1569.8553,-4941.4260
2024-12-18,321.4099,-66.5993,6343.0735,-1259.9264,-3853.7246,-329.4247,-1255.3212,-4937.9592
2024-12-19,278.3109,-84.8013,4832.8096,-1804.0150,,,,
2024-12-20,131.4685,-265.8905,2156.9766,-5384.3247,0.0000,,0.0000,
2024-12-23,228.1153,-85.0699,4209.8616,-1661.2515,-642.4154,-138.1050,780.4974,-3955.1124
2024-12-24,253.0666,-83.9843,4326.7305,-1371.6959,-660.1102,-96.6304,-87.5066,-4850.9534
2024-12-26,238.8695,-92.2495,4474.1627,-1557.1406,,,,
2024-12-27,237.1620,-82.6601,4338.9255,-1403.0887,,,,
2024-12-30,259.6648,-94.4812,4639.6802,-1570.5621,,,,
2024-12-31,251.5455,-104.2023,4514.3331,-1669.9665,-742.5215,-142.1788,938.1244,-3128.6181
2025-01-02,303.5104,-105.1144,4732.8950,-1578.8922,-859.6425,-112.7046,275.9778,-3604.0782
2025-01-03,236.7235,-162.8924,4441.5812,-2178.0791,-853.6385,-287.0019,2109.7525,-3131.6263
2025-01-06,241.1018,-143.8555,4519.2113,-2171.9040,-885.1918,-236.4050,1399.1451,-3038.2186
2025-01-07,257.3766,-144.6990,4824.4008,-2348.3017,,,,
2025-01-08,256.1839,-122.4246,3832.2594,-2197.8716,-1073.9078,-171.3906,2530.3661,-5238.3312
2025-01-10,244.4422,-171.0080,4536.3252,-2522.4900,-1050.1201,-368.1626,2049.6397,-3373.9847
2025-01-13,246.3853,-175.7622,4480.7906,-2755.7152,-1111.3154,-359.8635,1832.8054,-2430.1858
2025-01-14,275.5198,-155.4544,4195.8196,-2340.7233,,,,
2025-01-15,293.5405,-167.0530,4267.0347,-2219.0859,-1490.9340,-344.5136,2074.9041,-3446.1274
2025-01-16,301.0973,-152.4177,5135.7023,-2442.5915,-1743.2122,-782.7067,1243.0125,-1922.6504
2025-01-17,325.4091,-154.1668,5443.5925,-2424.9872,,,,
2025-01-21,293.5226,-105.4289,4720.1114,-1915.9005,-1190.8279,-70.9168,2225.4050,-2430.5769
2025-01-22,387.5259,-100.6714,5133.0054,-1626.4068,-1178.1737,26.4859,-501.2096,-2286.6308
2025-01-23,336.4224,-102.8149,4977.1817,-1787.6983,-1159.4776,-17.9110,1480.9976,-1949.5699
2025-01-24,351.4393,-95.6808,4864.2320,-1654.4044,-1201.1456,13.7160,1759.2219,-1846.7007
2025-01-27,285.3024,-98.7536,4461.2179,-1781.8582,-1286.8275,45.0183,2747.3331,-1750.9202
2025-01-28,341.5178,-87.2411,4598.7161,-1508.6651,-1331.3617,220.3607,1827.2144,-3015.5589
2025-01-29,344.5750,-86.6167,4538.6673,-1494.8913,-1355.0571,232.1221,2070.5885,-2888.1388
2025-01-30,271.7352,-90.9394,4395.3194,-1608.5036,-214.1875,438.2423,578.5571,-2555.3103
2025-01-31,329.4264,-83.1288,5046.4593,-1396.3615,-1335.6691,305.9330,1326.6108,-2378.2870
2025-02-03,282.1552,-91.5508,3947.0782,-1651.4019,-1764.9168,359.6848,2775.7264,-2294.8627
2025-02-04,288.5908,-82.4153,4726.4320,-1541.1319,,,,
2025-02-05,316.2532,-81.0438,5284.5376,-1399.1599,,,,
2025-02-06,346.9102,-99.4553,5638.9677,-1630.7163,,,,
2025-02-07,358.6094,-2273.0613,5035.8173,-23553.7410,-2070.3446,-3330.2716,2409.4462,-4069.0774
2025-02-10,195.2654,-925.0515,3091.5941,-51003.8535,-3676.8261,-18509.9082,5685.2674,39829.6245
2025-02-11,212.5534,-608.6323,3173.8769,-53724.8218,,,,
2025-02-12,158.0619,-566.0996,2676.5886,-52447.0858,-5387.7113,-23718.4673,8226.7806,47350.7353
2025-02-13,149.5205,-548.2815,2524.6562,-52831.9168,-5429.3778,-23117.2183,7765.8084,38631.3840
2025-02-14,190.4698,-600.1408,3132.6058,-52416.3071,-6512.3138,-28154.7323,6153.9725,37763.4993
2025-02-18,231.0404,-633.9704,3617.3523,-52268.9579,-6032.7374,-28700.6735,4887.8520,45508.2141
2025-02-19,234.6787,-912.9475,3723.4640,-54610.0054,-19387.5382,-92850.0188,3467.7224,32272.9076
2025-02-20,197.4034,-1511.1256,3713.7511,-53488.4270,,,,
2025-02-21,295.7219,-2092.0223,4464.7569,-50543.2403,,,,
2025-02-24,147.8135,-359.2685,3044.5071,-4499.8477,-408.8723,-633.5525,264.3177,-1137.0735
2025-02-25,157.8408,-403.6897,3150.8215,-5051.1661,-438.4199,-751.1885,554.0726,-1377.0600
2025-02-26,166.3302,-400.0145,3411.5580,-4301.0329,-425.8814,-550.4149,135.8859,-2791.3912
2025-02-27,161.6892,-379.7911,3379.6003,-4704.3678,-448.1381,-694.7433,496.1831,-1277.2975
2025-02-28,176.7673,-343.8302,3424.4921,-4488.7513,,,,
2025-03-03,166.8567,-366.9016,3399.7821,-4663.2106,-503.8215,-704.3863,479.1294,-668.7940
2025-03-04,166.7156,-406.9147,3194.3471,-5154.3221,-548.3113,-902.6884,677.9503,-461.3134
2025-03-05,166.5807,-373.7312,3192.0510,-4999.5852,,,,
2025-03-06,174.3156,-354.1012,3547.7211,-4259.0753,-487.7960,-640.2968,166.4045,-902.4673
2025-03-07,179.2796,-288.1882,3901.9598,-3668.9816,-461.8597,-481.6165,-111.4148,-1017.0082
2025-03-10,170.8611,-297.4619,3870.3493,-3675.6588,-522.5585,-517.6203,420.1492,-1110.4387
2025-03-11,185.8147,-284.6058,3809.0455,-3633.3886,,,,
2025-03-12,170.6774,-371.3821,3519.1251,-4313.6119,,,,
2025-03-13,179.3350,-337.4694,3389.8996,-4470.7199,-741.2477,-856.4540,519.2405,-100.5701
2025-03-14,162.9407,-388.9386,3180.6175,-4913.4756,-838.5728,-1082.8533,1051.1593,55.6443
2025-03-17,171.5250,-346.2283,3413.8189,-4447.4656,-798.2605,-1045.8894,817.1466,227.3188
2025-03-18,180.2292,-371.7791,3468.9659,-4390.7153,-1386.2835,-1585.6408,922.5916,47.1320
2025-03-19,187.4266,-371.5541,3436.3489,-4705.9087,,,,
2025-03-20,178.1368,-382.2638,3395.3088,-4791.4596,-3073.9228,-2028.3204,664.6817,-774.2014
2025-03-21,246.7734,-1000.5425,5651.0328,-13492.8130,-13922.6273,-20416.0096,210.4581,-7160.0023
2025-03-24,204.8323,-729.4670,5193.4623,-10275.1500,-433.1441,-1059.2540,-87.2806,-6990.4050
2025-03-25,212.3687,-600.7092,5815.0605,-8778.9668,-392.4005,-888.9848,-1281.5381,-6396.3421
2025-03-26,210.4692,-651.1278,5728.8119,-9168.1519,-439.7192,-937.3507,-43.8874,-6849.6380
2025-03-27,213.6176,-630.1447,5954.0902,-7848.5195,-425.8001,-791.7435,-452.7507,-9826.9593
2025-03-28,221.6420,-556.8940,6327.8349,-8564.4886,-427.0960,-890.0850,-712.5505,-4741.8185
2025-03-31,222.3466,-662.5370,5705.2603,-9418.3735,-497.1376,-961.1027,-20.8727,-5879.0130
2025-04-01,223.8699,-612.1456,6016.3038,-8197.9896,-480.5346,-838.1031,-154.2123,-7003.3815
2025-04-02,227.9928,-612.1173,6087.2331,-8816.6855,-515.2993,-924.1991,47.2757,-5089.3948
2025-04-03,214.7872,-518.6254,6404.5692,-10779.4688,-540.6126,-1255.2276,-116.3860,580.2100
2025-04-04,208.1585,-658.5594,5688.5542,-10057.3365,-588.7480,-1076.6263,1212.4497,-3374.5402
2025-04-07,203.4573,-820.3297,6428.6990,-18545.5530,-947.4911,-2273.9456,3280.3232,4839.9654
2025-04-08,218.9044,-856.6813,6821.4388,-18903.4349,-956.9370,-2166.2550,2964.3481,3305.6995
2025-04-09,206.7468,-843.5306,5823.0284,-23844.6323,-1161.7459,-2796.5123,3961.9482,7444.9095
2025-04-10,251.1244,-855.1200,7424.6097,-16493.2951,-980.1126,-1854.0610,2271.7102,1106.2487
2025-04-11,221.4620,-773.6640,7676.4644,-16137.1944,-997.6604,-1863.4734,2773.2185,2008.4943
2025-04-14,258.2131,-724.3887,8496.0315,-11927.8956,-1250.8763,-1349.9330,2064.9904,-1142.3771
2025-04-15,278.2720,-700.2331,8613.8567,-11927.6901,-1356.5250,-1119.1676,870.2854,-1150.9380
2025-04-16,265.1511,-804.0380,8211.2915,-12398.0115,-2089.5859,-711.9722,1540.1375,-2576.4377
2025-04-17,274.2508,-746.4474,8309.2183,-12167.9464,-5241.4822,1739.2767,1642.4161,-1759.2886
2025-04-21,246.6651,-806.1255,7788.2375,-13284.8112,-791.2111,-1552.9821,1535.7323,-954.0710
2025-04-22,244.5243,-840.4431,7834.3562,-12610.1580,-848.7548,-1532.1281,1915.7586,-1597.2831
2025-04-23,248.7346,-678.9815,8641.9201,-9977.7575,-793.7621,-1230.2460,1198.0187,-2536.6786
2025-04-24,258.4583,-663.5735,8731.3198,-10248.3764,-764.7114,-1085.5970,850.4024,-2499.0483
2025-04-25,260.6244,-586.9035,9580.8581,-8677.8998,-633.3890,-630.7492,-79.7397,-3578.5758
2025-04-28,277.0073,-626.1807,9463.2660,-9028.5979,-800.8655,-863.7200,213.0295,-3070.4074
2025-04-29,276.8493,-619.4565,9493.9066,-8591.9263,-739.5356,-372.8810,-83.2374,-4292.8911
2025-04-30,279.8459,-651.0333,9416.9324,-9276.1186,-774.2206,-472.3853,118.0406,-3662.1277
2025-05-01,2809.7267,-682.2984,46310.3805,-9639.4976,-9612.0718,-814.2833,10769.6471,-3248.8124
2025-05-02,6518.7081,-2472.2091,64457.2860,-29049.4827,-6133.5116,-2428.9415,-47308.8356,-7430.3980
2025-05-05,3811.0902,-2640.7819,56573.3495,-27357.0386,-7159.6416,731.7686,-1437.5757,-13408.2868
2025-05-06,5276.6838,-2860.2535,52412.8233,-33437.8532,-7505.4178,-2423.9230,-8756.4650,-6184.8118
2025-05-07,4184.2284,-2640.6256,57638.0142,-30640.9671,-7199.7679,-2413.6253,-2581.3779,-5561.1713
2025-05-08,4968.8569,-2547.2009,61017.5167,-30046.0829,-6400.3474,-2573.3589,-7911.3761,-3916.3733
2025-05-09,4692.4973,-2363.3461,71515.5986,-24289.5683,-1290.4211,1298.7865,-18038.0866,-7704.5053
2025-05-12,3607.4560,-1835.0402,80995.4745,-12148.8339,5326.2992,28950.2318,-15503.2767,-18840.0816
2025-05-13,3298.7873,-1782.3210,76865.3520,-12627.3251,27352.6074,50520.4278,-18352.9725,-18349.9062
2025-05-14,4986.0721,-2365.4542,69053.3483,-17351.5889,25427.5768,65584.9448,-12333.2078,-14468.1639
2025-05-15,4465.3835,-2694.5529,58830.9201,-20883.7007,3540.7767,127031.3492,-1265.5615,-10665.0934
2025-05-16,3829.9797,-2036.5930,72516.8628,-15054.8547,236382.2872,493297.5368,-3405.4205,-5457.6315
2025-05-19,187.9700,-103.2166,5436.6795,-1889.5592,-523.1474,-166.3497,503.2636,-2181.5221
2025-05-20,251.5933,-128.4869,6593.0768,-2176.0611,-617.5661,-224.6405,91.4942,-1942.9564
2025-05-21,224.6622,-151.9844,6038.1676,-2475.5246,-608.2280,-225.9576,1026.8962,-2264.1257
2025-05-22,224.7932,-158.1533,5990.4800,-2520.8918,-662.0886,-257.4064,1254.9294,-2090.1136
2025-05-23,250.8622,-168.2027,6569.7331,-2634.6940,-724.6952,-248.3187,1205.4400,-2465.5416
2025-05-27,274.0119,-155.5558,6906.5411,-2370.5022,-785.8077,-255.1628,1297.0851,-2190.0188
2025-05-28,277.4494,-153.2467,7081.2101,-2300.7568,-796.1484,-241.7604,1197.3993,-2326.5212
2025-05-29,291.9260,-141.2545,7360.7452,-2209.7354,-818.9842,-239.9456,1014.1216,-1901.2785
2025-05-30,286.2362,-145.3165,7264.6752,-2250.0999,-801.5164,-225.7310,1060.6184,-2011.9978
2025-06-02,297.5266,-144.3758,7205.9863,-2215.4672,-887.0352,-229.8985,1013.6618,-2011.0162
2025-06-03,271.8405,-166.4962,6831.5467,-2433.2542,-917.9555,-251.9857,1543.2434,-2302.6352
2025-06-04,279.5569,-164.7452,6828.8519,-2355.8773,-989.1953,-268.9289,1721.3758,-2316.8192
2025-06-05,262.6102,-193.8589,5903.0087,-3159.4465,-1257.0373,-413.5213,3015.4815,-1308.7373
2025-06-06,283.1019,-191.5687,5884.5206,-2222.8159,-1359.1574,-262.3656,2862.0677,-4086.6684
2025-06-09,268.1500,-208.5039,6106.4267,-2820.2656,-1377.3664,-362.8959,2696.4247,-2701.6143
2025-06-10,89.4750,-109.2261,2606.9779,-1750.8241,-274.4338,-132.0828,1003.7170,-1709.6903
2025-06-11,197.9976,-183.4473,3943.1176,-2457.5309,-1434.3992,-314.5400,2297.9208,-2320.1197
2025-06-12,92.2689,-102.6088,2703.3948,-1638.4701,-275.1281,-120.0510,859.5345,-1647.0772
2025-06-13,278.2078,-217.5704,5664.9567,-2416.9117,-2108.5126,-202.9815,2984.2477,-3738.4167
2025-06-16,460.4698,-220.8740,8020.6966,-2997.4007,-4045.3619,-455.1881,6827.6838,-2364.3425
2025-06-17,148.5439,-62.4517,2806.1062,-1048.9357,-3396.1575,-405.1114,1439.8889,-194.5947
2025-06-18,801.3648,-215.9765,10476.6123,-3093.6146,-9733.7843,-683.5493,17389.8363,-1933.1494
2025-06-20,1162.0156,-590.8144,17306.0941,-6422.1951,-55632.4715,-1052.3239,23768.3354,-8057.9596
2025-06-23,1621.2014,-786.3840,15047.1301,-6392.0734,-12411.5131,381.3661,45367.0277,-24328.5352
2025-06-24,2211.7443,-437.3102,21933.6474,-3214.4980,-12265.8145,1880.7805,36305.7433,-33020.0535
2025-06-25,2227.5653,-415.5285,18608.0626,-3033.0798,-13776.4040,2130.0600,43099.0560,-33097.0723
2025-06-26,2214.5463,-302.9326,18097.6114,-2207.0818,-14339.9104,2858.7317,44440.8589,-42864.9277
2025-06-27,2623.1489,-372.3025,20135.2731,-2750.5733,-16610.1642,2684.7362,49364.9614,-32326.7075
2025-06-30,2911.5451,-266.8132,21118.7688,-2073.4937,-17076.4831,3483.3517,47915.6796,-37307.8886
2025-07-01,3051.8259,-361.2311,21238.5799,-2752.1037,-18863.4613,3626.3972,47071.6053,-24978.5282
2025-07-02,4120.9827,-115.5040,29069.0576,-1294.8404,-17474.4497,6105.9195,34117.8183,-44150.3976
2025-07-03,4871.4240,-90.8924,33390.9676,-1168.2262,-17078.2781,6769.2387,26308.8101,-48715.4193
2025-07-07,5274.5630,-86.4374,35292.5895,-1131.7791,-17397.9949,7309.5930,23250.6301,-47612.6586
2025-07-08,5631.7828,-79.2304,32231.5669,-1011.0923,-22811.7631,9596.7173,30099.7704,-44508.7222
2025-07-09,4995.9151,-88.0099,27216.5383,-1068.8532,-26734.8703,11772.5548,38959.8155,-43779.2610
2025-07-10,3505.3750,-174.3684,37330.4332,-1450.9148,-23419.3132,14086.1373,18666.1569,-23537.8228
2025-07-11,4007.7015,-90.3004,18595.0522,-1003.5050,-38490.7952,14166.0249,58330.1524,-43697.8818
2025-07-14,3051.7403,-283.0888,33211.4839,-2138.0066,-49957.8122,26363.2336,17528.4258,-14683.1556
2025-07-15,2933.0248,-306.8625,35691.1313,-2462.2181,-62546.9167,34621.0339,13902.5691,-11666.2755
2025-07-16,2339.4188,-135.6690,15758.1081,-1554.6123,-92015.3862,48717.5170,31772.8302,-31293.6720
2025-07-17,2751.7597,-131.6213,23236.9622,-1524.2659,-241633.1405,145771.8318,17446.0868,-20003.4289
2025-07-18,3788.4141,-771.1210,28596.8337,-6431.1229,-229502.5868,16334.2692,39260.6437,-22289.6933
2025-07-21,2752.8821,-1103.9783,34371.5177,-10400.4613,-11602.2913,1200.5184,25961.6320,-24475.8794
2025-07-22,2641.7928,-1187.0446,28979.9985,-10738.8782,-12869.9801,1107.6887,33702.0349,-26034.0729
2025-07-23,3412.2030,-898.5455,43625.9537,-9772.8921,-11178.7292,1114.5066,15663.7388,-16524.2804
2025-07-24,4291.6565,-590.1301,41988.8657,-4265.7137,-14719.5392,4892.2072,25099.8948,-38985.5675
2025-07-25,3987.1578,-751.2820,49663.7651,-7194.4277,-12730.7713,2720.5001,17899.9905,-22243.1500
2025-07-28,4212.1170,-737.1012,49142.5774,-6932.6764,-15571.2104,3813.0503,22858.4185,-19987.8307
2025-07-29,3639.3296,-808.4544,35592.1970,-6209.2711,-18363.5932,5089.1145,36221.3259,-29858.6172
2025-07-30,3549.6223,-827.4017,38070.0805,-6458.4160,-18162.4382,5375.4879,31760.8891,-27983.6940
2025-07-31,3369.7858,-1043.0728,31102.5948,-9258.6276,-21205.0258,4092.4092,39055.4359,-20793.1832
2025-08-01,4559.7361,-1006.7570,48930.1467,-8216.3252,-17907.9507,5695.4549,25071.0331,-24797.9403
2025-08-04,1185.0086,-4605.6594,7824.2236,-29005.5820,-48629.9344,668.9551,79059.8450,-26234.0949
2025-08-05,812.3377,-7816.5747,5846.0560,-43159.1101,-52023.4323,-7824.2242,82291.6617,-22173.9341
2025-08-06,1071.5540,-6068.9346,7734.5491,-38911.3249,-53989.7189,-5301.5109,73116.8568,-12657.1046
2025-08-07,544.1303,-7459.1345,4493.0720,-46174.3689,-65260.3454,-8804.0747,89575.7850,-9275.6618
2025-08-08,748.1396,-6082.2722,5459.5668,-35814.5032,-69617.4572,-3186.2058,81332.9997,-12978.5055
2025-08-11,1330.1672,-4663.3669,9707.4558,-16549.1878,-120085.5479,44468.4953,49980.6964,-43815.6373
2025-08-12,1189.3282,-5932.9340,8697.8437,-30795.9783,-122588.5416,17267.0041,44729.6077,-17801.5638
2025-08-13,1189.7147,-5916.8616,8585.6458,-21230.4382,-161770.4792,62587.7106,38996.6507,-58703.4825
2025-08-14,1031.6136,-3404.3856,7134.7669,-10965.7801,-504675.6013,293413.0023,35505.0911,-43716.3381
2025-08-15,2302.0307,-8450.8221,24107.0002,-46453.2216,-531730.4020,54794.2536,35459.8223,-22476.2383
2025-08-18,3175.0966,-1661.5766,32208.5554,-13293.7460,-10766.0937,4.6147,28198.5457,-47633.9916
2025-08-19,3080.4662,-1779.1772,29585.5907,-13724.1235,-11550.8484,-349.1104,34694.6643,-50157.0436
2025-08-20,3328.0451,-1694.2642,38570.7404,-16738.5957,-10098.5023,-744.9742,25132.1132,-24446.8709
2025-08-21,3408.2532,-1583.4121,41080.6631,-17425.6348,-9640.0734,-970.8280,22090.0734,-18560.4850
2025-08-22,3325.0954,-1626.7949,40526.6736,-18117.7302,-10005.2071,-1038.6958,24619.0256,-17330.6647
2025-08-25,3444.4069,-1594.3734,39033.9609,-17864.5912,-11376.8906,-656.5803,28659.7050,-15350.0977
2025-08-26,3361.7031,-1752.6056,34054.0785,-17541.8002,-12606.3471,-355.8181,35871.6261,-20226.2641
2025-08-27,3417.6443,-1731.9243,35078.3660,-18734.6050,-12611.5425,-714.0177,33793.9254,-15513.4410
2025-08-28,3248.5985,-1792.5004,33008.3435,-16458.7081,-13919.9343,608.3831,37739.3694,-24091.4891
2025-08-29,3539.8501,-1842.9106,33454.2911,-18556.1153,-14106.0690,-64.7735,34032.7123,-17421.2383
2025-09-02,3419.9405,-1918.7655,31795.9945,-18792.7914,-16638.4866,736.9084,35672.3275,-15775.6900
2025-09-03,3160.6159,-2275.8544,24637.1567,-19719.1960,-19058.8666,969.3283,40538.3851,-19456.6734
2025-09-04,3018.4177,-1881.8903,24735.8467,-12254.2748,-20887.5306,5078.9205,45282.4323,-44923.8198
2025-09-05,3728.9285,-1958.4059,30933.6866,-19002.7377,-17940.1110,1028.1287,33580.8637,-13843.3566
2025-09-08,199.8893,-1753.8696,2773.0006,-21068.4952,-789.4114,-299.4556,2961.2719,-4795.8069
2025-09-09,3458.7251,-2006.7867,31071.7705,-19648.8188,-23613.7582,3619.1959,30250.6349,-11341.2679
2025-09-10,3487.7628,-2224.8518,27957.6742,-21243.4544,-25307.8600,2965.6110,31466.3253,-11863.1645
2025-09-11,3449.8977,-2258.4542,23624.5089,-20506.5434,-35050.3949,4875.7584,40587.8038,-11311.8437
2025-09-12,3591.8086,-1976.1674,27459.5192,-14102.3578,-30424.7724,13687.9658,30048.2715,-27329.0311
2025-09-15,3136.1975,-2620.1387,18627.5941,-19622.2331,-40853.9871,10203.6544,40047.6919,-17007.4615
2025-09-16,2938.5831,-2770.0905,18798.5166,-24299.0263,-67287.1216,12263.6899,31769.9934,-7300.4008
2025-09-17,3051.6400,-2685.9892,20150.1440,-21429.4697,-85270.3302,25160.5133,27770.2666,-8550.2600
2025-09-18,3792.5986,-3047.3424,27834.2001,-22350.0312,-293045.6657,82877.9882,40289.1939,-23005.9635
2025-09-19,4617.8759,-2527.8673,33400.4582,-18442.8088,-885667.7218,431519.2828,30929.8185,-30023.5138
2025-09-22,3196.1937,-2653.7498,26119.5366,-23395.8221,-12784.7176,-1787.4121,41229.9248,-28296.9987
2025-09-23,2799.4057,-3170.8151,21214.7825,-26891.5929,-14896.4874,-2306.2807,48881.4586,-26682.7554
2025-09-24,2679.5010,-3434.4465,18964.3072,-27875.4269,-16425.0570,-2368.0146,51680.8080,-27820.3766
2025-09-25,2575.0133,-3673.1646,15542.6964,-29069.0280,-17459.7452,-2757.0610,57302.0871,-28085.0865
2025-09-26,2469.5343,-3919.2390,16911.2375,-30186.4811,-17514.8407,-2949.7667,53042.8748,-28370.9512
2025-09-29,2774.5426,-3415.7206,18262.0239,-25964.1737,-19905.1356,-1134.0746,50802.0073,-27050.5651
2025-09-30,2756.6466,-3627.9457,21202.0807,-26349.5564,-20199.0561,-1336.7069,45314.6242,-27709.0175
2025-10-01,2936.6554,-3184.0742,27026.0619,-25045.0807,-19046.9507,-178.4340,37254.4771,-23975.2393
2025-10-02,3525.6661,-2811.1357,20960.2081,-20263.1697,-18010.0048,5225.3242,32618.3882,-41265.7102
2025-10-03,3050.9895,-3139.2869,20957.3240,-21871.6223,-21901.1566,1394.6338,45788.7419,-32411.5317
2025-10-06,3058.6467,-3108.1709,19740.2966,-19882.7701,-23646.1439,2824.6257,47301.5564,-40100.8274
2025-10-07,2801.4081,-3712.0921,18552.5261,-22820.5213,-29233.4211,3749.6726,44684.7164,-33891.6242
2025-10-08,2407.8712,-4720.7575,14463.1270,-26885.6445,-34314.5212,2909.0509,48297.3875,-34596.9462
2025-10-09,2676.2757,-3951.2566,19224.9803,-21983.4158,-38265.1206,9089.5385,40014.6733,-35686.8800
2025-10-10,2257.9508,-4734.8027,13458.4443,-27460.2251,-42602.2813,4724.5517,48084.9617,-26093.3051
2025-10-13,2395.7468,-4549.7252,13259.3403,-25924.1961,-47367.9990,7724.6980,46129.4654,-26265.0816
2025-10-14,2347.6874,-4821.9914,13499.5793,-25378.3532,-77038.4900,21634.5821,37042.1666,-22505.2778
2025-10-15,1629.6496,-5396.9863,7368.1680,-29607.5137,-175355.9235,45276.6018,43915.3580,-12960.3893
2025-10-16,1145.1089,-5073.7637,10494.0726,-22699.9095,-398310.1817,96135.1380,64296.3700,-18573.5113
2025-10-17,3637.9160,-4251.5518,30530.4390,-31518.7622,-1230132.0865,146613.1302,38141.2577,-11862.0036
2025-10-20,3313.5239,-2149.4706,34018.2122,-26498.2608,-11850.6002,-2861.2308,36440.7022,-12664.5337
2025-10-21,3379.6992,-2038.1868,36040.9221,-20001.1411,-11285.7958,-1335.9192,30198.7230,-37317.8044
2025-10-22,3726.9545,-2064.0829,37051.4730,-21108.1466,-11646.2176,-1220.1616,30888.4096,-27616.6796
2025-10-23,3671.0004,-2233.7810,33318.6721,-23777.2227,-12208.4927,-1493.1740,31721.4043,-24529.7580
2025-10-24,3501.5427,-2064.2198,39788.4496,-26668.0401,-11589.0589,-2680.1885,28209.8805,-8335.5046
2025-10-27,3207.4541,-2395.6859,33154.6340,-24648.5283,-12815.6878,-1883.0168,35879.6669,-24002.5976
2025-10-28,3327.6989,-2382.3287,32698.9301,-25340.5558,-14407.6352,-1800.6857,35222.3745,-18578.3324
2025-10-29,2776.9664,-2849.5474,29911.3051,-31162.2690,-14958.7305,-2593.6489,33561.3936,-15519.7847
2025-10-30,3497.0510,-2841.4894,34690.1029,-36300.3823,-16667.5512,-4259.1576,37100.8308,-2653.2051
2025-10-31,2041.0175,-4489.5995,14883.4872,-68669.4019,-23052.9436,-10155.5195,54061.8823,15119.0460
2025-11-03,4715.8296,-3428.0630,34843.3611,-35166.1807,-24275.7171,-1286.3206,48350.2467,-19240.1743
2025-11-04,4108.6255,-4125.4270,25196.1399,-39213.2198,-30232.8988,2321.7997,71251.0890,-40811.3193
2025-11-05,4802.2018,-4046.6906,26227.7644,-41950.6208,-31531.1811,-650.4612,75043.5835,-13023.3968
2025-11-06,5475.0655,-3017.4922,28067.1428,-25538.5085,-29356.4857,9507.4530,60875.0946,-73802.6863
2025-11-07,5529.8135,-2952.8308,32584.3719,-26094.0106,-30533.0696,11871.7568,60378.2497,-60939.5974
2025-11-10,6743.0912,-3171.9521,26669.2496,-25895.5863,-40482.4406,17430.2112,64311.2730,-51957.9745
2025-11-11,8244.0713,-2870.8227,24711.0059,-24459.4151,-47894.5985,18605.1308,83526.5424,-43925.1835
2025-11-12,7545.0551,-2377.6546,42651.9809,-20015.0668,-37884.9291,32355.6762,42422.3920,-67712.7065
2025-11-13,6096.6019,-2133.0561,43276.9182,-19243.2107,-35219.5073,38287.2354,50782.7311,-103231.8162
2025-11-14,6775.2112,-1791.5037,56045.8339,-17209.6087,-34867.8178,53088.0656,23925.5542,-75198.9433
2025-11-17,14548.1477,-2429.2460,42403.4024,-20834.9945,-74476.6789,76304.4563,49601.0035,-34551.3354
2025-11-18,8608.2014,-2856.1455,37748.1624,-24194.0967,-96022.6083,108556.2903,35452.0355,-29332.7144
2025-11-19,9424.9761,-3407.5645,45788.9589,-27610.1727,-93059.1762,121800.4646,35548.8400,-32319.9833
2025-11-20,7316.7366,-4623.0069,29470.4063,-38173.5829,-236107.3472,190913.1813,56093.2933,-24397.0107
2025-11-21,10450.7414,-3963.4146,34867.3661,-29362.7623,-202448.4445,246600.3605,50875.9445,-33707.4199
2025-11-24,4428.1062,-2308.8698,40832.1320,-20583.5047,-10422.7235,-323.4760,19719.9799,-24418.9628
2025-11-25,7151.7622,-1987.6405,40500.8629,-16658.9480,-12507.1802,985.1370,6358.5644,-31519.1851
2025-11-26,4895.6520,-1709.3572,50013.3638,-13465.1079,-9712.7488,2079.0003,13597.1635,-42005.0564
2025-11-28,4991.4603,-1720.3345,52411.5737,-13855.0847,-9991.1841,2807.6875,12312.6582,-35607.0885
2025-12-01,4915.3825,-1454.5581,58051.6985,-11885.3657,-9623.8920,4689.5543,9255.0557,-34947.1424
2025-12-02,5145.2347,-1598.6162,52536.6891,-12574.3329,-11151.3522,5202.0841,13273.8898,-36389.6608
2025-12-03,4910.4145,-2193.3133,41375.1267,-16604.6218,-14702.6020,3718.2904,24348.7323,-29755.6855
2025-12-04,4749.6282,-2189.6956,46847.0858,-19137.5526,-14241.0388,2545.2307,21168.4078,-18933.2740
2025-12-05,6427.7175,-2241.7006,36890.8456,-18186.9238,-18592.6022,3789.9596,29128.8126,-21708.6215
2025-12-08,6759.6726,-2318.6931,35119.5118,-23233.3071,-21004.5368,2134.2861,26852.4998,-8903.4429
2025-12-09,4174.9765,-2915.9892,34747.2711,-22645.6417,-24855.4486,4819.7148,28933.9770,-16187.2200
2025-12-10,3321.6373,-4466.0226,24000.9124,-26248.2630,-33936.0565,5350.6792,35778.1220,-25777.2544
2025-12-11,4082.5856,-3280.2307,27419.8784,-25235.1052,-33968.6743,5961.6141,33885.5223,-13584.4858
2025-12-12,4466.2124,-3030.4342,19499.1047,-29594.8744,-43771.0579,1333.6591,48136.5647,-4087.0613
2025-12-15,7060.6906,-1664.1480,32354.9544,-11392.0484,-51221.8828,47633.4897,30248.5621,-28250.4311
2025-12-16,10918.2829,-1355.1469,37669.1511,-9831.0293,-55385.6425,68770.0504,27314.0812,-23917.9067
2025-12-17,9554.1596,-857.4001,39417.1548,-9450.2065,-73030.1836,135973.9165,30273.5007,-49851.6675
2025-12-18,11156.4196,-1896.1479,45798.0903,-15541.1938,-92304.9441,167802.5779,29392.7102,-17614.2951
2025-12-19,7966.7736,-1612.2928,37191.9814,-13555.0631,-94524.2364,160509.0561,37931.3350,-40433.3801
2025-12-22,3024.2907,-2285.4030,18527.7224,-20473.7676,-14600.2609,-509.3342,47497.8880,-23024.9910
2025-12-23,3540.8148,-1978.1043,15168.0262,-20036.2809,-17283.8038,-613.1337,58364.1078,-15382.9969
2025-12-24,3435.5363,-1852.2261,21586.4943,-14325.8524,-14626.5462,1333.6987,44206.4907,-37695.9516
2025-12-26,3632.1498,-1943.8019,16414.4142,-17932.5670,-18320.0535,512.4744,56157.4902,-18989.8648
2025-12-29,3718.4289,-121.5434,14990.9461,-2957.0474,-19706.6146,-244.8510,53190.8730,174.9314
2025-12-30,3902.2087,-1589.6295,19125.6993,-12249.0647,-19927.1447,4620.7967,49709.7501,-34155.2501
2025-12-31,3725.3134,-1664.0698,19634.7754,-12627.8803,-19421.7401,4322.5140,47175.1476,-33198.9041
2026-01-02,3114.8699,-1776.8956,13626.4470,-12597.4888,-25232.0832,6714.8676,57263.4463,-36408.7051
2026-01-05,3619.5379,-1953.2914,20114.7938,-15353.5009,-28420.0846,6423.9906,44459.8621,-19247.6089
2026-01-06,3333.7150,-2138.0417,15000.0547,-17912.7723,-33046.7100,6000.2983,51656.7445,-14909.0511
2026-01-07,2780.9633,-2419.7733,13110.0031,-19448.6045,-37397.7087,6722.6022,50210.9640,-14414.7632
2026-01-08,2584.8468,-2562.5038,12399.0306,-19888.1757,-40833.4794,9637.4914,46021.9018,-16266.6244
2026-01-09,3551.1627,-1494.2175,13966.3633,-10813.9957,-45188.8276,22121.6030,51207.1203,-29749.2724
2026-01-12,3298.6697,-976.9314,12057.2208,-8318.9119,-61139.5558,41064.7572,41634.8638,-22530.2636
2026-01-13,3843.6040,-495.4734,18222.2404,-6195.1910,-38610.1679,40317.7023,23533.3371,-24140.8914
2026-01-14,2991.1928,-760.5048,13367.1361,-7534.7497,-66306.3551,55903.5324,19581.3707,-9530.2987
2026-01-15,4159.6830,-331.6287,18850.0299,-5175.8545,-89582.8657,155652.4149,13616.4378,-15872.6844
2026-01-16,2271.9052,-364.5256,9402.2413,-6374.2500,-383373.9152,523437.0842,11486.1301,-9846.3511
2026-01-20,371.1248,-321.5330,4882.2019,-6199.7435,-1698.3570,-704.6385,6626.3172,125.2818
2026-01-21,392.8136,-320.9351,4912.2037,-6162.5440,-1709.8868,-694.8176,6373.2386,65.1004
2026-01-22,423.4944,-327.4583,5652.1494,-6021.7061,-1782.7046,-694.5110,6958.9773,339.9274
2026-01-23,427.0577,-355.6605,5314.1066,-5932.2221,-1850.8186,-686.5340,6943.8354,-659.2455
2026-01-26,459.8353,-328.4905,5992.8124,-5418.0966,-1735.8479,-610.8722,6077.4323,-529.4508
2026-01-27,431.5484,-360.1327,5502.5941,-5955.3255,-2023.7256,-753.2246,6991.9874,92.6916
2026-01-28,416.2534,-348.8126,4958.8450,-6317.7686,-2102.0446,-757.5270,7187.8051,153.0496
2026-01-29,404.7858,-349.6188,5129.6731,-6249.5734,-2123.9620,-792.8754,7019.5029,141.9129
2026-01-30,415.8356,-328.2764,5209.7580,-6151.3164,-2170.5881,-796.7260,6812.3431,163.5482
2026-02-02,427.1252,-363.5114,5349.5681,-6260.5273,-2487.7518,-927.6509,6801.0772,447.3853
2026-02-03,427.9520,-352.1804,4881.2791,-6145.1081,-2686.6204,-906.6975,7400.6177,66.8874
2026-02-04,456.1571,-365.9841,5296.3838,-5844.4750,-2730.4715,-900.2788,6923.0179,-35.7697
2026-02-05,614.0988,-293.4658,7144.5608,-4620.8516,-2534.1108,-604.9311,5345.7009,-617.5212
2026-02-06,603.7877,-357.3280,8428.2417,-4872.8227,-2430.2068,-585.0068,4247.6083,-1698.0716
2026-02-09,748.4231,-282.5131,11600.3178,-2872.9496,-2236.2000,41.8736,3337.9127,-2159.4655
2026-02-10,727.5095,-183.9368,15572.3268,-1700.7217,-804.6625,574.8825,-1836.3576,-3281.7914
2026-02-11,791.6479,-170.0579,17729.6459,-1407.2622,-199.8398,1113.6014,-5130.3478,-4277.1254
2026-02-12,737.4315,-186.1398,16351.9199,-1425.0205,-434.1422,1443.4272,-611.7463,-4498.8321
2026-02-13,647.2637,-417.1342,17721.3222,-6328.1328,733.4142,1414.8917,-4228.2903,-4836.0976
2026-02-17,630.9472,-370.9355,17892.5464,-5953.8179,1602.9627,5945.5356,1256.6355,-5981.7380
2026-02-18,644.7493,-378.9846,17875.6002,-6175.1554,6016.3544,9277.7545,116.8589,-5080.8912
2026-02-19,695.4383,-404.2026,18655.4266,-6268.3769,15252.9599,18340.0721,-521.9455,-3482.0153
2026-02-20,538.4665,-329.5026,19709.9580,-5469.4235,57680.7554,47367.2767,-1560.1462,-3689.3145
2026-02-23,431.4204,-342.4768,12209.5184,-5132.2209,-750.2046,-417.0005,764.1952,-5590.5898
2026-02-24,462.6125,-278.4993,13378.7278,-4470.2521,-760.8729,-390.8359,-347.1337,-3940.0350
2026-02-25,468.7685,-308.3915,12363.6419,-5171.0086,-841.7960,-444.0793,1184.7477,-3299.8478
2026-02-26,526.9502,-353.2641,12335.6923,-5849.1785,-865.9150,-522.2121,-215.0093,-2575.1788
2026-02-27,493.8630,-375.5874,11405.3556,-6300.1857,-1016.7512,-581.2600,2547.2958,-2317.8533
2026-03-02,533.8984,-358.9508,12930.8398,-5997.6254,-1009.7123,-557.0711,1663.9877,-1828.5857
2026-03-03,539.9790,-350.0219,11844.0967,-6633.7735,-1162.8244,-629.7289,3601.9180,-702.3475
2026-03-04,529.0696,-406.1934,10917.8680,-7181.8709,-1263.3985,-660.1819,4890.6441,-1670.4375
2026-03-05,500.2494,-414.8327,8769.4549,-8916.3199,-1642.7597,-935.5968,7474.4697,52.2913
2026-03-06,593.9473,-388.1629,8283.4783,-9301.3092,-1591.1529,-820.8680,6041.9512,359.3021
2026-03-09,493.2400,-412.0023,6865.6796,-10902.3931,-2382.3944,-1284.1000,10009.9916,1867.5991
2026-03-10,594.3262,-486.3607,7760.4057,-10491.5237,-2296.9599,-1180.2361,8682.9602,1019.6448
2026-03-11,612.9328,-512.9497,8563.8698,-11590.9071,-2743.1605,-1371.9396,10281.3115,1433.1951
2026-03-12,632.9545,-414.5160,8886.6678,-10178.4413,-3021.7641,-1370.9980,10631.9293,2737.9682
2026-03-13,549.4315,-385.1726,7367.1880,-9946.6641,-3487.8843,-872.5844,11763.0689,2441.8372
2026-03-16,561.4719,-383.2192,6967.0217,-9812.2668,-4868.2308,-822.2230,11960.1747,2320.6523
2026-03-17,533.3191,-418.2146,6981.1221,-10269.6958,-6416.4786,-876.8011,12614.5747,2698.3289
2026-03-18,327.6587,-277.6931,4233.4173,-13421.0741,-11340.8551,-1580.9452,15408.6545,9839.6967
2026-03-19,319.7457,-348.4903,3747.6660,-12279.9012,-21135.1297,-930.8348,17129.9332,5300.6985
2026-03-20,341.4452,-348.7841,4341.1229,-11864.3071,-74854.7535,692.7869,15085.8293,5142.5808
2026-03-23,279.9158,-303.3748,4181.1215,-12400.8527,-1904.3417,-1311.0302,14126.6552,5827.2029
2026-03-24,315.7769,-335.9174,4934.4493,-11839.8285,-1890.1048,-1331.5665,13050.9349,5455.6341
2026-03-25,319.8621,-348.8904,4744.6215,-11328.9577,-2060.3851,-1350.0366,14476.2361,5046.0240
2026-03-26,326.1057,-353.2765,4583.8511,-11252.2966,-2052.2609,-1306.8953,13954.6138,4645.6953
2026-03-27,305.7843,-336.3121,4523.7093,-12013.2973,-2054.1178,-1390.5534,13674.9467,5168.5735
2026-03-30,281.2964,-316.5436,3859.2084,-12289.1748,-2288.6211,-1564.0176,15196.3096,5828.1305
2026-03-31,287.7941,-311.0345,4033.9229,-12561.0968,-2211.1736,-1608.8808,14101.5295,5768.0939
2026-04-01,338.1905,-368.3361,5199.5712,-11574.9196,-2097.7799,-1516.1355,12442.5281,4826.1039
2026-04-02,296.5961,-344.9938,3970.8899,-11896.9168,-2425.8564,-1633.9184,15447.2233,5407.5323
2026-04-06,316.0710,-360.3029,4222.1411,-11682.6471,-2586.7579,-1744.7979,14613.8434,4910.9378
2026-04-07,333.9684,-359.3451,4115.8378,-11875.5898,-2768.6075,-1873.1025,14966.1627,5200.6793
2026-04-08,425.0516,-434.4869,5853.0134,-10180.3585,-2869.2280,-1570.4497,12503.4095,3300.5143
2026-04-09,399.0040,-368.3861,5334.9329,-10768.9452,-3306.4699,-2365.5586,15057.3342,8150.6653
2026-04-10,453.6896,-465.9208,5881.8760,-9460.7329,-2919.5660,-1484.2751,12707.2031,2507.4949
2026-04-13,428.1789,-486.4541,5643.9621,-10787.4167,-3787.8000,-2245.2330,12638.4704,3810.4595
2026-04-14,502.7509,-492.9213,6289.4477,-9830.7110,-3822.2672,-2272.4017,12803.4964,2563.6350
2026-04-15,527.6914,-487.6686,6590.5909,-9726.3669,-4566.8693,-2481.9285,11687.3514,2075.7407
2026-04-16,518.1536,-352.2911,5698.5442,-8735.4718,-5004.5960,-1084.0724,13188.7923,2213.5683
2026-04-17,548.0727,-382.9984,5746.2653,-8815.5750,-15361.4456,-865.0430,13407.4769,2383.7012
2026-04-20,462.9113,-381.6917,5846.4210,-9327.0448,-3387.2668,-1427.3087,14809.8077,3141.9466
2026-04-21,581.4603,-397.7935,6446.8907,-8707.7189,-3465.0218,-1265.1433,14488.0915,2272.5734
2026-04-22,457.2559,-326.4345,5258.2740,-10779.4682,-3788.0797,-1841.0081,15427.0458,5403.0690
2026-04-23,388.7330,-320.5865,4586.2922,-10260.5218,-3399.9564,-1745.2819,13863.7984,3229.7349
2026-04-24,380.1238,-317.4866,4738.3627,-11028.3597,-3539.2662,-1957.9188,13465.1041,4218.9001
2026-04-27,408.3086,-323.0662,5086.4008,-10316.4851,-4032.9213,-2092.0279,13686.3566,3311.0096
2026-04-28,378.3949,-319.9992,4372.1923,-11162.3534,-4248.6706,-2270.0765,15424.1417,4753.5647
2026-04-29,410.3747,-345.6163,5357.8859,-10591.3178,-4197.8526,-2109.9314,12250.0185,2983.6812
2026-04-30,355.9389,-324.6679,4272.4850,-11638.7228,-4927.4253,-2753.6084,14446.0166,4498.8625
2026-05-01,502.2948,-388.0778,5459.5308,-9507.1906,-4855.7058,-1861.3247,14348.3013,1390.6567
2026-05-04,376.4053,-229.9148,4558.6606,-13507.2289,-7248.1350,-5008.0264,17176.9224,13894.4292
2026-05-05,458.9600,-331.7003,5893.8367,-12305.7420,-7283.9176,-3932.4097,14596.6719,3940.3263
2026-05-06,477.0719,-354.2914,6356.4527,-12161.2586,-7643.8881,-3819.8907,14453.3374,4244.2421
2026-05-07,431.2151,-245.2067,5240.1080,-5073.1931,-8913.7593,-970.3526,15002.0534,452.8894
2026-05-08,421.7744,-241.7256,5383.2235,-2703.0781,-9905.8858,665.5726,15821.0844,-1956.9345
2026-05-11,367.4038,-388.1450,4468.7899,-3280.2373,-17238.1014,1424.2082,13935.8689,-1268.3086
2026-05-12,362.1341,-335.8184,4001.8682,-3102.6683,-22841.8219,2174.7803,15376.5915,-1312.1816
2026-05-13,311.4507,-340.1963,3323.8964,-3698.9595,-34443.4604,2185.1091,15326.6355,-326.0981
2026-05-14,265.6669,-383.9578,3097.0229,-3670.0857,-52738.4318,6304.8084,15434.9374,-303.8513
2026-05-15,268.4394,-358.0639,3010.2954,-3614.3296,-222845.6012,20158.0002,13996.8082,36.2365
2026-05-18,239.2321,-140.5138,2575.0052,-3303.7964,-1584.9944,-303.6058,11455.0508,626.0650
2026-05-19,262.8262,-151.2526,2746.2198,-3357.2971,-1638.5825,-329.2840,12022.2192,675.1473
2026-05-20,267.0736,-152.2867,2372.7842,-3272.6607,-1757.5379,-302.0293,13582.1991,370.7121
2026-05-21,263.2958,-143.3576,2743.1921,-3249.7543,-1658.8903,-291.5660,11085.6495,459.5586
2026-05-22,262.4266,-142.7474,2604.6144,-3186.3352,-1749.2157,-291.0355,12601.3425,406.9358
2026-05-26,280.9336,-160.1730,2737.2902,-3273.6020,-1792.7624,-323.7801,11481.7257,557.5332
2026-05-27,286.3547,-167.5445,2738.2816,-3204.3630,-1876.9311,-317.8126,12849.2159,431.6994
2026-05-28,258.0904,-172.3040,2431.8551,-3480.1220,-1810.9385,-297.6971,11937.6660,140.9901
2026-05-29,273.4144,-180.9265,2813.4507,-3577.6825,-1996.1480,-451.7536,11889.8684,1853.3794
2026-06-01,271.7894,-184.1491,2439.5355,-3808.5260,-2157.6013,-427.4095,11386.0614,939.8052
2026-06-02,241.0219,-858.8412,1970.8671,-11004.4565,-2500.8371,-1757.1970,14141.1736,2049.2190
2026-06-03,230.6576,-846.4544,2087.9078,-10934.1078,-2500.9931,-1800.1966,14023.8519,1961.5629
2026-06-04,313.5857,-878.7304,2395.4453,-9012.7121,-2488.2853,-1248.8556,11306.2603,-116.6483
2026-06-05,276.0486,-1060.5257,2130.8265,-10511.7288,-2695.5327,-1800.3985,13037.3951,960.9022
2026-06-08,218.6473,-1053.4986,1695.2078,-13218.8630,-3439.5495,-3359.1849,15142.3382,5406.8698
2026-06-09,329.5453,-854.5230,2433.3760,-8960.4769,-3237.4169,-1356.2583,12290.9069,-142.2872
2026-06-10,383.7101,-1295.0086,3087.5215,-8504.9712,-3134.4653,-170.8086,11375.6963,-4518.4817
2026-06-11,358.1918,-1641.3024,2550.9005,-10268.9838,-3719.2322,-1621.1929,13476.4992,-330.3686
2026-06-12,495.7461,-883.5219,3428.0086,-8725.3398,-3426.4805,-634.6038,12392.6267,-693.2444
2026-06-15,851.6032,-786.4960,4759.0892,-6014.7900,-3669.6951,3399.8409,9877.5507,-2585.6635
2026-06-16,611.2410,-966.5801,3867.5165,-7041.0407,-7029.0826,4825.4735,11285.7164,-1826.6699
2026-06-17,678.5406,-409.0258,5461.0359,-3907.3890,-9099.5487,3733.0036,9436.3899,-1326.5510
2026-06-18,1303.6465,-448.8825,4421.4843,-4135.4372,-13307.8963,6700.8981,11551.1789,-1893.2789
2026-06-22,112.8043,-251.7652,1938.0681,-3503.9005,-1286.0657,-363.3273,11334.6612,-964.0414
2026-06-23,136.8680,-251.5593,2396.3624,-3386.8300,-1314.3903,-339.1105,9627.6864,-1730.4936
2026-06-24,149.1349,-247.0840,2664.9298,-3551.3321,-1337.9269,-376.5844,9623.1507,-689.2079
2026-06-25,187.6368,-175.2613,3566.9374,-2487.3826,-1377.6063,-242.9538,9403.7552,-1168.3341
2026-06-26,215.7777,-193.0985,3562.2408,-2631.3003,-1464.6827,-181.5853,10012.5530,-1874.7244
2026-06-29,231.6866,-181.2863,3800.2668,-2253.5662,-1442.3870,-113.3155,9224.7315,-2484.5216
2026-06-30,275.9240,-198.4799,4312.2442,-2307.2262,-1539.1053,-34.1463,7266.3458,-3429.7322
2026-07-01,274.2332,-194.8956,3614.5680,-2138.2403,-1819.0904,5.4639,11541.7756,-3588.9246
2026-07-02,280.0331,-168.1018,4571.1475,-2063.8604,-1522.4140,69.6893,7576.5771,-2866.1519
2026-07-06,346.0109,-206.7906,5118.9016,-2437.4022,-2154.0834,85.2621,9842.0105,-1816.5434
2026-07-07,413.8339,-180.1587,5859.2910,-2499.0560,-1827.8652,-63.2610,9098.4453,-1055.4915
2026-07-08,457.2789,-219.1291,5764.0495,-2920.8323,-2293.9384,-244.1203,8600.7027,-1164.4656
2026-07-09,390.8763,-245.8924,4666.0872,-3393.1538,-2310.1661,-235.2980,8745.5032,-681.6942
2026-07-10,395.3843,-250.0321,4777.9345,-3097.9837,-2608.8621,73.1136,9233.1662,-1134.7090
2026-07-13,406.5375,-204.3465,5060.5983,-2591.9822,-3683.3659,666.7008,10423.0177,-590.8817
2026-07-14,395.8398,-169.2424,6249.8519,-2088.1943,-3293.4430,2128.7167,7405.3931,-1567.7389
2026-07-15,604.4899,-168.1992,8931.0340,-2105.8389,-2417.6112,3859.2753,8053.6759,-1471.8702
2026-07-16,731.8728,-131.1606,14088.9922,-1806.8412,2652.4465,10532.8814,10691.1500,-2133.0184
2026-07-17,612.5145,-95.5695,17265.9427,-1359.1369,23163.2065,40606.6092,9914.3350,-2283.8774
2026-07-20,830.4174,-120.9800,19831.6340,-1950.8521,-5786.7714,-183.1930,20489.2303,-813.6367
2026-07-21,832.5815,-178.8108,18735.8627,-3200.5720,-6008.0125,-311.9350,21380.8420,-678.9003
2026-07-22,876.3292,-183.9124,18482.7361,-3422.1453,-6361.8393,-332.8069,21745.4000,-294.9120
2026-07-23,899.0314,-173.6830,18528.9169,-3377.1124,-6499.2482,-312.4007,21126.7532,-361.9251
2026-07-24,1116.5196,-179.3002,24909.0547,-3342.7303,-7229.6663,-317.0074,23575.2690,-476.7081
2026-07-27,1224.9370,-155.5903,31790.5925,-2853.9400,-6201.6284,-262.6084,12015.0136,-365.3895
2026-07-28,1179.6385,-149.1212,33881.1956,-2453.0851,-5797.2624,-137.1969,9482.0491,-1396.4983
2026-07-29,1131.0068,-147.7004,33007.8540,-2436.3404,-6231.7627,-132.8265,12666.3661,-1285.1332
2026-07-30,1169.5222,-148.8483,33716.2672,-2402.2646,-5833.9902,-105.5418,10837.2572,-1359.8443
2026-07-31,1125.0833,-164.9233,35797.9300,-2189.4628,-6863.5761,-198.5920,12600.9497,-1410.6831
2026-08-03,1108.3450,-184.8878,33657.6316,-2273.6761,-6969.0956,-49.2036,13863.1845,-2137.5069
2026-08-04,910.8911,-200.9056,24696.6542,-2447.1657,-7784.0536,-31.9604,17963.3755,-1994.7863
2026-08-05,795.0343,-223.3971,22425.6795,-2640.2027,-8146.7669,-26.5303,19125.4098,-2033.8102
2026-08-06,823.4078,-203.8205,22540.1983,-2407.7856,-8433.0822,275.1623,19497.2977,-3423.5041
2026-08-07,575.5464,-203.9820,26364.7537,-2575.9045,-6340.7044,210.3939,-17821.6956,-2305.1233
2026-08-10,1172.7731,-231.3182,19710.3775,-2910.9216,-10141.2808,358.0606,13693.5400,-3247.4321
2026-08-11,1521.6203,-239.6438,21346.7044,-3161.5447,-12543.1133,227.4950,17687.1662,-1793.5685
2026-08-12,1344.9039,-270.1465,22303.5702,-3880.3701,-11240.8720,369.2507,8772.3227,-2287.8970
2026-08-13,1764.0163,-232.6810,22324.1725,-3760.4211,-14333.3735,343.7997,17408.0793,-1012.3278
2026-08-14,995.8842,-282.0090,21227.9433,-4188.0617,-14241.5645,637.8591,-2980.2913,-2304.6257
2026-08-17,1127.5494,-288.1603,20053.0708,-4506.7212,-23775.0714,1057.2573,5502.0878,-913.3734
2026-08-18,1551.6904,-259.6086,19141.2665,-3256.3589,-32992.1135,2854.8837,12654.9476,-2398.4752
2026-08-19,1536.4025,-245.0487,20755.0162,-3242.3805,-36686.9957,4640.7198,8442.8834,-1883.5549
2026-08-20,1369.9191,-289.2336,16321.1722,-3792.6828,-81969.7137,11428.2044,8614.9014,-2144.4088
2026-08-21,1613.1448,-217.6111,22110.6337,-2784.5778,-212547.7486,28333.6407,3717.1375,-1513.0607
2026-08-24,181.7883,-128.5282,6431.2782,-2236.3876,-446.5686,-209.4106,939.3030,-862.4086
2026-08-25,219.6215,-128.5783,6984.5709,-2218.2928,-597.4373,-233.9208,1327.6726,-1040.1675
2026-08-26,242.1219,-135.9866,6738.2368,-2294.3935,-661.6568,-238.5311,1392.7177,-727.4018
2026-08-27,237.3128,-164.9960,6369.0774,-2703.4571,-741.2477,-316.7513,1777.1421,-1281.1208
2026-08-28,246.6514,-156.9601,6526.4936,-2671.9052,-735.6817,-307.4033,1023.0704,-619.1009
2026-08-31,245.3348,-163.9076,6447.2203,-2626.9313,-814.7100,-326.6630,1788.7860,-601.0819
2026-09-01,236.7969,-169.1020,6168.6152,-2970.4433,-864.0947,-411.6654,2211.8661,-0.7129
2026-09-02,233.5685,-156.8762,5947.3608,-3015.7969,-971.4143,-420.8794,2616.6552,-211.8026
2026-09-03,214.2179,-146.3996,5512.5216,-3736.0234,-1061.5007,-714.2137,3298.3893,1013.8864
2026-09-04,215.0781,-127.6421,5390.8722,-3692.7209,-1124.9848,-718.4290,2987.6677,1008.6369
2026-09-08,175.8427,-86.9571,4680.3971,-4383.2589,-1449.6881,-989.7176,3885.5907,1165.1483
2026-09-09,185.5433,-82.6604,4364.1086,-3825.5012,-1523.7512,-1015.8627,4038.6563,1701.1051
2026-09-10,188.9564,-66.1308,4150.2089,-3756.0980,-1824.6878,-1167.5812,4849.4913,1368.1070
2026-09-11,226.6404,-58.6034,4651.5095,-3831.8282,-1587.0746,-1416.0021,3144.4035,2392.4922
2026-09-14,205.2715,-59.8153,4804.6242,-3872.3503,-2743.3988,-2250.6200,4119.8015,3565.3461
2026-09-15,213.1948,-63.1906,4785.8600,-3806.4256,-3416.3107,-2789.2429,3696.3132,2202.9626
2026-09-16,224.8285,-98.7902,4991.3311,-3640.3779,-4825.6534,-3338.8996,3718.1963,849.5326
2026-09-17,235.3057,-73.3445,5104.6671,-1853.3594,-8722.4667,-155.1894,2432.5854,139.6853
2026-09-18,2998.1350,-80.1222,7212.2490,-1947.4015,-1212216.3784,-168.1422,60310.2719,49.2749
2026-09-21,198.0587,-73.1607,4737.9647,-1985.4541,-632.5748,-185.0223,2805.2284,31.5994
2026-09-22,207.8902,-77.3679,4715.0944,-2001.7382,-674.2833,-183.3924,3059.2444,269.5354
2026-09-23,221.7289,-75.9708,5017.5204,-1948.5714,-708.6823,-176.6048,2849.8223,232.9727
2026-09-24,220.2756,-78.0349,4926.9901,-2032.0319,-727.1167,-191.7581,2947.1321,196.8356
2026-09-25,214.7827,-80.9137,4640.6487,-2142.3940,-756.2611,-190.1019,3294.3010,235.6349
2026-09-28,240.5465,-81.1200,4765.9684,-1988.2816,-801.0197,-174.6127,2410.5581,186.0819
